airport,object_id,subpath_index,edge_index,mid_x,mid_y,angle,length
ecg,0,0,0,104.98,188.725,22.9205,3.5177
ecg,0,0,1,106.89,189.265,153.4343,0.6485
ecg,0,0,2,107.285,188.975,125.9117,0.358
ecg,0,0,3,112.005,182.815,127.4972,15.1629
ecg,0,0,4,116.8,176.365,112.4796,0.9415
ecg,0,0,5,116.98,175.425,90.0,1.01
ecg,0,0,6,116.655,174.24,64.4552,1.5074
ecg,0,0,7,115.61,172.91,42.0747,1.94
ecg,0,0,8,116.295,168.8,112.1005,7.4688
ecg,0,0,9,220.99,226.695,30.7106,240.277
ecg,0,0,10,324.965,288.445,29.969,1.5814
ecg,0,0,11,326.19,288.915,7.9085,1.0904
ecg,0,0,12,328.965,288.595,169.9774,4.5393
ecg,0,0,13,331.38,287.875,118.9789,0.743
ecg,0,0,14,333.29,284.885,122.9899,6.3546
ecg,0,0,15,335.305,281.675,117.6058,1.23
ecg,0,0,16,342.185,280.27,172.5704,13.3017
ecg,0,0,17,350.435,280.67,37.2833,4.1601
ecg,0,0,18,352.595,283.84,75.1898,3.9512
ecg,0,0,19,353.28,287.515,84.1767,3.5483
ecg,0,0,20,353.605,290.9,84.8857,3.253
ecg,0,0,21,348.78,299.975,123.6901,17.9196
ecg,0,0,22,337.25,304.01,27.535,14.796
ecg,0,0,23,330.15,300.155,38.8528,1.3868
ecg,0,0,24,335.88,296.48,152.6726,14.1153
ecg,0,0,25,342.405,292.52,109.5028,1.5277
ecg,0,0,26,342.84,290.79,100.1054,2.0519
ecg,0,0,27,342.945,288.735,85.8942,2.0954
ecg,0,0,28,342.475,286.935,62.3827,1.7041
ecg,0,0,29,341.18,285.675,29.2973,2.064
ecg,0,0,30,339.485,285.53,155.6375,1.7454
ecg,0,0,31,338.08,286.54,133.182,1.7828
ecg,0,0,32,335.525,290.505,120.4012,7.6869
ecg,0,0,33,331.525,296.735,125.183,7.1331
ecg,0,0,34,323.13,297.2,21.1282,13.5939
ecg,0,0,35,317.04,293.745,103.9693,2.0712
ecg,0,0,36,261.195,259.16,30.9059,130.7557
ecg,0,0,37,167.055,203.06,30.6226,88.4211
ecg,0,0,38,128.47,180.075,40.732,1.4252
ecg,0,0,39,127.21,179.14,33.1356,1.7197
ecg,0,0,40,125.915,178.38,26.7646,1.288
ecg,0,0,41,124.76,177.875,20.339,1.2371
ecg,0,0,42,123.605,177.66,0.0,1.15
ecg,0,0,43,122.38,177.84,164.5207,1.3489
ecg,0,0,44,121.045,178.095,173.7519,1.3782
ecg,0,0,45,119.785,178.925,127.2924,1.8981
ecg,0,0,46,112.76,188.725,125.4927,22.2184
ecg,0,0,47,105.12,199.21,129.5702,3.7361
ecg,1,0,0,178.755,323.025,135.0,0.2687
ecg,1,0,1,178.56,323.025,43.532,0.2759
ecg,1,0,2,178.56,322.83,134.9978,0.2828
ecg,1,0,3,178.755,322.83,46.4702,0.2759
ecg,2,0,0,170.685,307.605,135.0,0.2687
ecg,2,0,1,170.49,307.605,43.532,0.2759
ecg,2,0,2,170.49,307.41,134.9978,0.2828
ecg,2,0,3,170.685,307.41,46.4702,0.2759
ecg,3,0,0,166.07,316.395,136.468,0.2759
ecg,3,0,1,165.875,316.395,45.0,0.2687
ecg,3,0,2,165.875,316.2,133.5298,0.2759
ecg,3,0,3,166.07,316.2,45.0022,0.2828
ecg,4,0,0,173.495,326.05,133.5298,0.2759
ecg,4,0,1,173.3,326.05,45.0022,0.2828
ecg,4,0,2,173.3,325.855,136.468,0.2759
ecg,4,0,3,173.495,325.855,45.0,0.2687
ecg,5,0,0,173.35,326.77,134.9978,0.2828
ecg,5,0,1,173.155,326.77,46.4702,0.2759
ecg,5,0,2,173.155,326.575,135.0,0.2687
ecg,5,0,3,173.35,326.575,43.532,0.2759
ecg,6,0,0,160.955,340.39,133.532,0.2759
ecg,6,0,1,160.76,340.39,45.0,0.2828
ecg,6,0,2,160.76,340.195,136.468,0.2759
ecg,6,0,3,160.955,340.195,45.0,0.2687
ecg,7,0,0,158.94,340.535,136.468,0.2759
ecg,7,0,1,158.745,340.535,45.0,0.2687
ecg,7,0,2,158.745,340.34,133.532,0.2759
ecg,7,0,3,158.94,340.34,45.0,0.2828
ecg,9,0,0,148.0,333.05,133.4519,3.6642
ecg,9,0,1,154.05,336.08,42.3094,12.9543
ecg,9,0,2,159.345,340.51,7.8917,1.0197
ecg,9,0,3,160.355,340.435,163.98,1.0508
ecg,9,0,4,167.055,333.48,132.2925,18.4124
ecg,9,0,5,169.61,321.485,54.9302,12.6702
ecg,9,0,6,164.675,316.045,11.1399,2.6397
ecg,9,0,7,167.27,312.295,138.0617,10.4589
ecg,9,0,8,171.56,310.385,75.8361,3.2694
ecg,9,0,9,175.31,317.45,58.562,12.8457
ecg,9,0,10,179.02,323.035,16.2618,0.75
ecg,9,0,11,179.775,322.96,155.5007,0.8682
ecg,9,0,12,184.24,318.565,133.9973,11.7185
ecg,9,0,13,193.57,314.17,178.04,10.5262
ecg,9,0,14,202.615,317.595,43.6048,10.4542
ecg,9,0,15,189.68,337.81,135.1891,47.136
ecg,9,0,16,169.715,357.73,134.4319,9.2706
ecg,9,0,17,165.9,360.435,46.7064,1.6624
ecg,9,0,18,166.855,357.95,129.048,4.8415
ecg,9,0,19,164.51,352.69,41.1335,10.2764
ecg,9,0,20,159.005,351.09,132.5685,4.8339
ecg,9,0,21,155.91,351.155,49.5919,4.5046
ecg,9,0,22,156.105,346.595,120.1875,6.5827
ecg,9,0,23,152.25,339.065,40.3736,14.465
ecg,10,0,0,244.295,239.59,89.1049,1.9202
ecg,10,0,1,244.495,237.78,104.1947,1.7535
ecg,10,0,2,245.065,236.18,115.33,1.6596
ecg,10,0,3,249.54,228.68,121.3987,15.8161
ecg,10,0,4,253.695,177.18,90.0448,89.5
ecg,10,0,5,252.345,132.395,1.4477,2.7709
ecg,10,0,6,250.96,176.52,90.0,88.32
ecg,10,0,7,246.415,228.465,120.277,18.0292
ecg,10,0,8,241.37,236.64,142.0458,1.2682
ecg,10,0,9,240.515,237.245,148.7996,0.83
ecg,10,0,10,239.68,237.485,177.0193,0.9613
ecg,10,0,11,240.175,238.55,46.8479,2.8511
ecg,11,0,0,183.6,201.995,112.8336,4.3292
ecg,11,0,1,201.59,215.175,30.7103,43.8029
ecg,11,0,2,220.765,225.265,107.4883,2.2961
ecg,11,0,3,224.17,218.625,118.892,12.6666
ecg,11,0,4,198.66,196.23,30.5312,66.3375
ecg,11,0,5,167.675,183.79,118.7059,10.0559
ecg,11,0,6,168.455,190.33,33.6899,7.6798
ecg,11,0,7,171.085,193.1,131.4386,1.7074
ecg,11,0,8,170.02,194.165,139.6353,1.3124
ecg,11,0,9,168.86,194.965,150.3957,1.5182
ecg,11,0,10,170.805,196.89,30.7531,6.0625
ecg,11,0,11,173.03,197.585,66.0376,1.8713
ecg,11,0,12,172.86,196.515,134.3243,0.6011
ecg,11,0,13,173.215,195.8,106.1718,1.0412
ecg,11,0,14,173.645,194.805,119.9321,1.1424
ecg,11,0,15,174.215,194.165,153.0333,0.6395
ecg,12,0,0,206.975,320.985,159.4988,1.2278
ecg,12,0,1,208.345,320.55,164.5317,1.6498
ecg,12,0,2,233.455,319.61,178.3039,48.6513
ecg,12,0,3,258.17,318.965,10.619,0.814
ecg,12,0,4,258.82,319.255,40.695,0.6595
ecg,12,0,5,259.25,319.83,63.4359,0.805
ecg,12,0,6,259.465,330.135,89.7983,19.8901
ecg,12,0,7,272.615,340.04,179.8252,26.2301
ecg,12,0,8,286.09,340.22,31.4286,0.8438
ecg,12,0,9,286.665,340.62,39.9369,0.5608
ecg,12,0,10,286.99,341.05,66.2533,0.5462
ecg,12,0,11,287.135,341.59,83.1174,0.5842
ecg,12,0,12,287.205,342.89,88.0151,2.0212
ecg,12,0,13,293.585,343.5,176.3927,12.7152
ecg,12,0,14,299.855,342.345,84.3272,1.5174
ecg,12,0,15,299.78,341.265,90.0,0.65
ecg,12,0,16,299.855,340.58,101.7678,0.7355
ecg,12,0,17,300.215,340.185,172.9981,0.5743
ecg,12,0,18,312.965,339.43,176.6942,24.9715
ecg,12,0,19,327.665,338.925,5.4949,4.4906
ecg,12,0,20,330.44,337.805,112.0227,2.8802
ecg,12,0,21,332.315,333.445,113.8131,6.613
ecg,12,0,22,332.39,329.88,23.1984,2.7417
ecg,12,0,23,330.77,329.195,21.939,0.7762
ecg,12,0,24,330.12,328.765,44.5013,0.8132
ecg,12,0,25,329.72,328.295,59.264,0.4305
ecg,12,0,26,328.965,318.205,86.2743,19.852
ecg,12,0,27,329.685,304.375,109.176,8.3112
ecg,12,0,28,326.695,300.45,0.0,8.71
ecg,12,0,29,322.805,301.855,71.6876,2.9599
ecg,12,0,30,323.45,304.23,79.4869,1.9731
ecg,12,0,31,323.63,306.1,90.0,1.8
ecg,12,0,32,323.165,308.55,106.6991,3.2365
ecg,12,0,33,322.34,310.75,118.9804,1.4861
ecg,12,0,34,309.62,312.55,174.6844,24.8267
ecg,12,0,35,296.935,312.91,67.6372,1.7085
ecg,12,0,36,296.36,310.965,77.7869,2.3635
ecg,12,0,37,296.035,308.765,85.8951,2.0954
ecg,12,0,38,296.18,306.675,101.8887,2.1358
ecg,12,0,39,296.54,304.875,100.5052,1.5357
ecg,12,0,40,296.86,303.69,112.7132,0.9323
ecg,12,0,41,297.22,302.68,107.2421,1.2146
ecg,12,0,42,292.72,302.03,0.8568,9.3611
ecg,12,0,43,288.76,303.11,57.9497,2.7136
ecg,12,0,44,290.02,306.28,75.0331,4.1819
ecg,12,0,45,290.45,309.2,96.9683,1.8134
ecg,12,0,46,290.195,310.675,104.1539,1.186
ecg,12,0,47,289.87,311.79,108.434,1.1384
ecg,12,0,48,289.19,312.91,130.7635,1.5315
ecg,12,0,49,288.47,313.815,124.0954,0.7849
ecg,12,0,50,277.225,314.57,177.7665,22.0668
ecg,12,0,51,264.655,314.965,1.2973,3.0908
ecg,12,0,52,262.605,314.605,32.7654,1.2011
ecg,12,0,53,261.845,313.595,69.5811,1.4618
ecg,12,0,54,261.625,311.435,91.3595,2.9508
ecg,12,0,55,262.13,308.985,115.7364,2.1648
ecg,12,0,56,263.14,306.965,117.3272,2.3525
ecg,12,0,57,264.22,304.77,115.1536,2.5409
ecg,12,0,58,258.6,303.62,0.0,12.32
ecg,12,0,59,253.09,304.485,53.0771,2.164
ecg,12,0,60,254.675,306.935,59.4636,3.6805
ecg,12,0,61,255.97,309.455,68.9419,2.0038
ecg,12,0,62,256.295,311.22,92.4139,1.6615
ecg,12,0,63,255.97,312.59,118.2384,1.2259
ecg,12,0,64,255.18,313.635,134.7147,1.4213
ecg,12,0,65,254.1,315.04,122.7998,2.1414
ecg,12,0,66,227.905,316.625,178.4682,51.2483
ecg,13,0,0,104.325,366.415,87.2732,0.2102
ecg,13,0,1,104.505,370.435,87.4406,7.8378
ecg,13,0,2,103.045,372.525,48.1431,4.9005
ecg,13,0,3,101.085,370.52,28.98,0.743
ecg,13,0,4,85.09,355.675,43.1025,42.9237
ecg,13,0,5,69.24,341.045,168.9954,0.3667
ecg,13,0,6,68.625,341.01,9.1417,0.8812
ecg,13,0,7,63.975,336.76,44.7612,11.8724
ecg,13,0,8,59.185,332.115,38.9622,1.479
ecg,13,0,9,58.285,331.54,18.699,0.6862
ecg,13,0,10,57.35,331.43,0.0,1.22
ecg,13,0,11,48.02,331.9,176.9148,17.4653
ecg,13,0,12,38.83,332.33,4.8637,0.9434
ecg,13,0,13,37.495,331.93,22.5963,1.8738
ecg,13,0,14,35.3,330.455,39.9748,3.4711
ecg,13,0,15,32.6,324.835,73.0852,9.4174
ecg,13,0,16,32.78,317.415,118.0011,6.6029
ecg,13,0,17,38.725,313.96,172.9952,8.8561
ecg,13,0,18,41.86,314.825,131.8857,3.7745
ecg,13,0,19,40.345,316.91,110.5559,1.4525
ecg,13,0,20,40.235,318.35,79.1981,1.5474
ecg,13,0,21,40.56,320.08,79.4875,1.9731
ecg,13,0,22,41.135,322.17,70.5735,2.3752
ecg,13,0,23,42.255,324.475,58.541,2.7784
ecg,13,0,24,43.84,327.07,58.6195,3.3031
ecg,13,0,25,50.755,328.48,0.0,12.11
ecg,13,0,26,56.845,321.31,90.2797,14.3401
ecg,13,0,27,56.485,313.275,65.4564,1.9019
ecg,13,0,28,58.575,312.695,6.5423,5.0026
ecg,13,0,29,60.77,313.63,114.044,1.4235
ecg,13,0,30,60.48,315.395,90.0,2.23
ecg,13,0,31,60.805,322.6,86.9452,12.1973
ecg,13,0,32,75.505,342.055,42.9148,39.2563
ecg,13,0,33,95.54,360.54,42.1323,15.2643
ecg,13,0,34,101.45,365.73,15.6422,0.5192
ecg,13,0,35,101.99,365.835,6.8809,0.5842
ecg,13,0,36,102.565,365.87,0.0,0.57
ecg,13,0,37,103.175,365.765,162.0963,0.6831
ecg,13,0,38,103.885,365.355,141.6133,0.9823
ecg,13,0,39,104.295,365.68,87.7274,1.261
ecg,15,0,0,111.925,378.585,87.7837,8.016
ecg,15,0,1,117.69,379.955,42.2375,15.9921
ecg,15,0,2,122.205,387.38,124.4254,4.9705
ecg,15,0,3,119.07,388.135,36.8168,4.322
ecg,15,0,4,115.935,386.085,28.252,3.19
ecg,15,0,5,113.375,385.185,7.1558,2.3281
ecg,15,0,6,112.15,383.815,86.7295,2.454
ecg,16,0,0,104.325,366.415,87.2732,0.2102
ecg,16,0,1,104.505,370.435,87.4406,7.8378
ecg,16,0,2,104.84,377.845,87.3789,6.9973
ecg,16,0,3,104.83,381.53,131.8201,0.5099
ecg,16,0,4,104.585,381.795,135.0,0.2121
ecg,16,0,5,103.9,381.725,13.371,1.254
ecg,16,0,6,102.75,381.795,158.2905,1.1625
ecg,16,0,7,94.56,390.285,132.7525,22.5387
ecg,16,0,8,77.67,390.24,42.0009,24.8677
ecg,16,0,9,64.665,384.515,145.4237,9.1453
ecg,16,0,10,50.525,372.735,54.1805,35.456
ecg,16,0,11,43.525,355.445,139.1827,8.9192
ecg,16,0,12,47.1,351.85,106.3894,1.4176
ecg,16,0,13,47.265,350.705,85.6956,0.9326
ecg,16,0,14,44.525,341.195,73.3502,18.8816
ecg,16,0,15,43.695,332.08,177.8622,3.7526
ecg,16,0,16,47.445,338.78,74.5195,14.0497
ecg,16,0,17,49.57,346.09,65.1576,1.1901
ecg,16,0,18,50.24,347.235,55.2308,1.473
ecg,16,0,19,51.23,348.23,34.3803,1.3813
ecg,16,0,20,52.655,348.835,14.1153,1.7632
ecg,16,0,21,54.185,348.8,159.6769,1.4396
ecg,16,0,22,57.095,346.895,143.4802,5.5621
ecg,16,0,23,69.39,359.92,55.5777,35.5925
ecg,16,0,24,76.18,376.91,144.7617,8.0072
ecg,16,0,25,78.915,385.37,45.6834,17.191
ecg,16,0,26,91.92,383.825,132.2922,20.8051
ecg,16,0,27,99.77,375.24,133.6829,2.4614
ecg,16,0,28,100.835,373.18,100.4126,2.3792
ecg,16,0,29,101.015,370.905,88.1858,2.2111
ecg,16,0,30,102.65,368.055,133.7418,4.8307
ecg,17,0,0,111.75,358.56,133.7456,1.9379
ecg,17,0,1,131.77,337.415,133.4238,56.2999
ecg,17,0,2,152.54,315.55,135.0002,4.0164
ecg,17,0,3,154.025,313.23,94.1306,1.8047
ecg,17,0,4,153.935,312.02,63.4349,0.6932
ecg,17,0,5,153.645,311.3,71.7758,0.8633
ecg,17,0,6,153.255,310.605,48.1797,0.7649
ecg,17,0,7,152.175,309.78,33.2063,1.972
ecg,17,0,8,150.16,308.84,18.5796,2.5109
ecg,17,0,9,158.23,305.125,160.3031,19.671
ecg,17,0,10,196.15,269.42,131.5037,86.4987
ecg,17,0,11,228.185,238.985,30.082,7.8007
ecg,17,0,12,209.505,265.975,131.379,66.7285
ecg,17,0,13,184.28,294.575,131.6435,9.5411
ecg,17,0,14,181.505,299.115,67.946,2.104
ecg,17,0,15,177.97,304.05,134.7822,11.1582
ecg,17,0,16,173.14,309.27,125.5378,3.0968
ecg,17,0,17,168.925,313.02,143.0886,8.292
ecg,17,0,18,155.09,326.35,134.1417,30.211
ecg,17,0,19,128.155,355.51,131.8608,49.1965
ecg,17,0,20,111.41,366.545,87.4063,14.5849
ecg,18,0,0,258.785,293.93,88.9446,3.8006
ecg,18,0,1,258.53,286.305,87.7993,11.4585
ecg,18,0,2,258.925,280.08,140.8889,1.5852
ecg,18,0,3,259.54,277.45,90.0,4.26
ecg,18,0,4,256.98,275.215,2.3486,5.1243
ecg,18,0,5,254.315,277.665,92.3534,5.1143
ecg,18,0,6,255.07,280.4,11.821,1.7573
ecg,18,0,7,256.125,286.42,88.0876,11.6865
ecg,18,0,8,256.345,293.935,89.1451,3.3504
ecg,18,0,9,255.97,296.405,116.7087,1.7799
ecg,18,0,10,257.52,296.875,170.5378,3.9538
ecg,19,0,0,153.365,76.35,0.0,200.97
ecg,20,0,0,116.5,282.505,90.0,23.63
ecg,20,0,1,127.31,270.69,0.0,21.62
ecg,20,0,2,138.12,282.505,90.0,23.63
ecg,20,0,3,127.31,294.32,0.0,21.62
ecg,21,0,0,185.305,436.335,2.7247,0.2102
ecg,21,0,1,185.51,436.365,14.0373,0.2062
ecg,21,0,2,185.695,436.43,25.2019,0.1879
ecg,21,0,3,185.865,436.52,30.4673,0.1972
ecg,21,0,4,186.02,436.63,40.6003,0.1844
ecg,21,0,5,186.155,436.765,49.0834,0.1985
ecg,21,0,6,186.275,436.92,55.4919,0.1942
ecg,21,0,7,186.38,437.09,60.9487,0.2059
ecg,21,0,8,186.51,437.37,67.1653,0.4123
ecg,21,0,9,186.64,437.76,75.9632,0.4123
ecg,21,0,10,186.71,438.06,78.6917,0.204
ecg,21,0,11,186.745,438.26,81.4694,0.2022
ecg,21,0,12,186.765,438.46,87.1348,0.2002
ecg,21,0,13,186.77,438.65,90.0,0.18
ecg,21,0,14,186.77,438.83,90.0,0.18
ecg,21,0,15,186.765,439.02,92.8652,0.2002
ecg,21,0,16,186.745,439.22,98.5299,0.2022
ecg,21,0,17,186.715,439.42,98.5306,0.2022
ecg,21,0,18,186.645,439.725,105.0183,0.4245
ecg,21,0,19,186.51,440.125,112.3067,0.4215
ecg,21,0,20,186.38,440.405,120.4635,0.1972
ecg,21,0,21,186.275,440.575,122.9057,0.2025
ecg,21,0,22,186.155,440.73,132.8801,0.1911
ecg,21,0,23,186.02,440.865,137.1199,0.1911
ecg,21,0,24,185.87,440.98,147.9976,0.1887
ecg,21,0,25,185.7,441.07,156.0362,0.197
ecg,21,0,26,185.51,441.135,165.9627,0.2062
ecg,21,0,27,185.305,441.17,174.5587,0.211
ecg,21,0,28,185.095,441.17,5.4413,0.211
ecg,21,0,29,184.89,441.135,14.0373,0.2062
ecg,21,0,30,184.7,441.07,23.9638,0.197
ecg,21,0,31,184.53,440.98,32.0024,0.1887
ecg,21,0,32,184.38,440.865,42.8801,0.1911
ecg,21,0,33,184.245,440.73,47.1199,0.1911
ecg,21,0,34,184.125,440.575,57.0943,0.2025
ecg,21,0,35,184.02,440.405,59.5365,0.1972
ecg,21,0,36,183.89,440.125,67.6933,0.4215
ecg,21,0,37,183.755,439.725,74.9817,0.4245
ecg,21,0,38,183.685,439.42,81.4694,0.2022
ecg,21,0,39,183.655,439.22,81.4701,0.2022
ecg,21,0,40,183.635,439.02,87.1348,0.2002
ecg,21,0,41,183.625,438.83,86.8218,0.1803
ecg,21,0,42,183.625,438.65,93.1779,0.1803
ecg,21,0,43,183.635,438.46,92.8652,0.2002
ecg,21,0,44,183.655,438.26,98.5306,0.2022
ecg,21,0,45,183.685,438.06,98.5306,0.2022
ecg,21,0,46,183.755,437.76,105.376,0.4149
ecg,21,0,47,183.89,437.37,112.8347,0.4123
ecg,21,0,48,184.02,437.09,119.0513,0.2059
ecg,21,0,49,184.125,436.92,124.5081,0.1942
ecg,21,0,50,184.245,436.765,130.9166,0.1985
ecg,21,0,51,184.38,436.63,139.3997,0.1844
ecg,21,0,52,184.53,436.52,147.9936,0.1887
ecg,21,0,53,184.7,436.43,156.0362,0.197
ecg,21,0,54,184.89,436.365,165.9627,0.2062
ecg,21,0,55,185.095,436.335,177.2753,0.2102
ecg,21,1,0,185.275,440.66,172.4092,0.1513
ecg,21,1,1,185.415,440.63,162.8944,0.136
ecg,21,1,2,185.545,440.575,151.7029,0.1476
ecg,21,1,3,185.665,440.5,143.9722,0.136
ecg,21,1,4,185.81,440.345,128.0446,0.2921
ecg,21,1,5,185.97,440.09,116.5651,0.313
ecg,21,1,6,186.095,439.79,108.9709,0.3384
ecg,21,1,7,186.18,439.47,100.619,0.3256
ecg,21,1,8,186.23,439.16,97.5962,0.3027
ecg,21,1,9,186.255,438.875,92.12,0.2702
ecg,21,1,10,186.255,438.61,87.7987,0.2602
ecg,21,1,11,186.23,438.33,82.4034,0.3026
ecg,21,1,12,186.18,438.02,79.381,0.3256
ecg,21,1,13,186.095,437.705,70.4631,0.3289
ecg,21,1,14,185.97,437.41,63.4349,0.313
ecg,21,1,15,185.81,437.155,51.9536,0.2921
ecg,21,1,16,185.665,437.0,36.0278,0.136
ecg,21,1,17,185.545,436.925,28.3024,0.1477
ecg,21,1,18,185.415,436.87,17.0994,0.136
ecg,21,1,19,185.275,436.845,3.8179,0.1503
ecg,21,1,20,185.125,436.845,176.1821,0.1503
ecg,21,1,21,184.98,436.87,164.0571,0.1456
ecg,21,1,22,184.85,436.925,149.7431,0.1389
ecg,21,1,23,184.735,437.0,143.9722,0.136
ecg,21,1,24,184.59,437.155,128.0464,0.2921
ecg,21,1,25,184.43,437.41,116.5651,0.313
ecg,21,1,26,184.305,437.705,109.5369,0.3289
ecg,21,1,27,184.215,438.02,102.3401,0.3276
ecg,21,1,28,184.165,438.33,95.7106,0.3015
ecg,21,1,29,184.14,438.61,94.3995,0.2608
ecg,21,1,30,184.14,438.875,85.7625,0.2707
ecg,21,1,31,184.165,439.16,84.2897,0.3015
ecg,21,1,32,184.215,439.47,77.6599,0.3276
ecg,21,1,33,184.305,439.79,71.0291,0.3384
ecg,21,1,34,184.43,440.09,63.4349,0.313
ecg,21,1,35,184.59,440.345,51.9554,0.2921
ecg,21,1,36,184.735,440.5,36.0278,0.136
ecg,21,1,37,184.85,440.575,30.2515,0.1389
ecg,21,1,38,184.98,440.63,15.9487,0.1456
ecg,21,1,39,185.125,440.66,7.5908,0.1513
ecg,22,0,0,187.785,436.995,12.9936,0.1334
ecg,22,0,1,187.665,436.94,36.0278,0.136
ecg,22,0,2,187.575,436.845,57.5319,0.1304
ecg,22,0,3,187.525,436.725,77.0064,0.1334
ecg,22,0,4,187.525,436.595,102.9951,0.1334
ecg,22,0,5,187.575,436.475,122.4681,0.1304
ecg,22,0,6,187.665,436.385,147.5262,0.1304
ecg,22,0,7,187.785,436.34,171.2589,0.1315
ecg,22,0,8,187.915,436.34,8.7411,0.1315
ecg,22,0,9,188.035,436.385,32.4738,0.1304
ecg,22,0,10,188.125,436.475,57.5319,0.1304
ecg,22,0,11,188.175,436.595,77.0049,0.1334
ecg,22,0,12,188.175,436.725,102.9936,0.1334
ecg,22,0,13,188.125,436.845,122.4681,0.1304
ecg,22,0,14,188.035,436.94,143.9722,0.136
ecg,22,0,15,187.915,436.995,167.0064,0.1334
ecg,23,0,0,190.62,436.335,2.6011,0.2202
ecg,23,0,1,190.825,436.365,14.7442,0.1965
ecg,23,0,2,191.01,436.43,23.9638,0.197
ecg,23,0,3,191.18,436.52,32.0064,0.1887
ecg,23,0,4,191.33,436.63,40.6003,0.1844
ecg,23,0,5,191.465,436.765,49.0834,0.1985
ecg,23,0,6,191.59,436.92,53.1319,0.2
ecg,23,0,7,191.695,437.09,63.4369,0.2013
ecg,23,0,8,191.82,437.37,67.1653,0.4123
ecg,23,0,9,191.955,437.76,74.624,0.4149
ecg,23,0,10,192.025,438.06,81.4694,0.2022
ecg,23,0,11,192.055,438.26,81.4694,0.2022
ecg,23,0,12,192.075,438.46,87.1348,0.2002
ecg,23,0,13,192.085,438.65,86.8221,0.1803
ecg,23,0,14,192.085,438.83,93.1782,0.1803
ecg,23,0,15,192.075,439.02,92.8652,0.2002
ecg,23,0,16,192.06,439.22,95.7115,0.201
ecg,23,0,17,192.03,439.42,101.3083,0.204
ecg,23,0,18,191.955,439.725,105.0183,0.4245
ecg,23,0,19,191.825,440.125,111.0368,0.4178
ecg,23,0,20,191.7,440.405,120.4673,0.1972
ecg,23,0,21,191.59,440.575,125.2168,0.2081
ecg,23,0,22,191.47,440.73,130.6039,0.1844
ecg,23,0,23,191.335,440.865,139.0834,0.1985
ecg,23,0,24,191.18,440.98,147.9976,0.1887
ecg,23,0,25,191.01,441.07,156.0362,0.197
ecg,23,0,26,190.825,441.135,165.2558,0.1965
ecg,23,0,27,190.62,441.17,174.8045,0.2209
ecg,23,0,28,190.405,441.17,5.4413,0.211
ecg,23,0,29,190.2,441.135,14.0373,0.2062
ecg,23,0,30,190.015,441.07,25.2019,0.1879
ecg,23,0,31,189.85,440.98,32.0024,0.1887
ecg,23,0,32,189.695,440.865,40.9166,0.1985
ecg,23,0,33,189.555,440.73,47.1199,0.1911
ecg,23,0,34,189.435,440.575,57.0943,0.2025
ecg,23,0,35,189.33,440.405,59.5365,0.1972
ecg,23,0,36,189.2,440.125,67.6933,0.4215
ecg,23,0,37,189.07,439.725,76.2924,0.422
ecg,23,0,38,189.0,439.42,78.6917,0.204
ecg,23,0,39,188.97,439.22,84.2885,0.201
ecg,23,0,40,188.95,439.02,84.2881,0.201
ecg,23,0,41,188.94,438.83,90.0,0.18
ecg,23,0,42,188.94,438.65,90.0,0.18
ecg,23,0,43,188.95,438.46,95.7119,0.201
ecg,23,0,44,188.97,438.26,95.7119,0.201
ecg,23,0,45,189.0,438.06,101.3083,0.204
ecg,23,0,46,189.07,437.76,104.0368,0.4123
ecg,23,0,47,189.2,437.37,112.8347,0.4123
ecg,23,0,48,189.33,437.09,119.0513,0.2059
ecg,23,0,49,189.44,436.92,126.8716,0.2
ecg,23,0,50,189.56,436.765,128.6598,0.1921
ecg,23,0,51,189.695,436.63,141.3402,0.1921
ecg,23,0,52,189.85,436.52,147.9936,0.1887
ecg,23,0,53,190.02,436.43,156.038,0.197
ecg,23,0,54,190.205,436.365,165.2546,0.1965
ecg,23,0,55,190.405,436.335,177.2753,0.2102
ecg,23,1,0,190.585,440.66,172.4092,0.1513
ecg,23,1,1,190.73,440.63,164.0513,0.1456
ecg,23,1,2,190.86,440.575,149.7485,0.1389
ecg,23,1,3,190.975,440.5,143.9722,0.136
ecg,23,1,4,191.125,440.345,129.5587,0.2983
ecg,23,1,5,191.29,440.09,116.5651,0.313
ecg,23,1,6,191.41,439.79,107.3529,0.3353
ecg,23,1,7,191.495,439.47,102.3401,0.3276
ecg,23,1,8,191.55,439.16,97.5933,0.3027
ecg,23,1,9,191.575,438.875,92.1233,0.2702
ecg,23,1,10,191.575,438.61,87.7953,0.2602
ecg,23,1,11,191.55,438.33,82.4063,0.3026
ecg,23,1,12,191.495,438.02,77.6599,0.3276
ecg,23,1,13,191.41,437.705,72.1227,0.3257
ecg,23,1,14,191.29,437.41,63.4349,0.313
ecg,23,1,15,191.125,437.155,50.4394,0.2983
ecg,23,1,16,190.975,437.0,36.0278,0.136
ecg,23,1,17,190.86,436.925,30.2569,0.1389
ecg,23,1,18,190.73,436.87,15.9429,0.1456
ecg,23,1,19,190.585,436.845,3.8179,0.1503
ecg,23,1,20,190.435,436.845,176.1821,0.1503
ecg,23,1,21,190.295,436.87,162.9006,0.136
ecg,23,1,22,190.17,436.925,149.7399,0.1389
ecg,23,1,23,190.055,437.0,143.9722,0.136
ecg,23,1,24,189.905,437.155,129.5606,0.2983
ecg,23,1,25,189.74,437.41,116.5651,0.313
ecg,23,1,26,189.62,437.705,107.8799,0.3257
ecg,23,1,27,189.535,438.02,102.3375,0.3276
ecg,23,1,28,189.48,438.33,97.5966,0.3026
ecg,23,1,29,189.455,438.61,92.2013,0.2602
ecg,23,1,30,189.455,438.875,87.88,0.2702
ecg,23,1,31,189.48,439.16,82.4038,0.3027
ecg,23,1,32,189.535,439.47,77.6625,0.3276
ecg,23,1,33,189.62,439.79,72.6446,0.3353
ecg,23,1,34,189.74,440.09,63.4349,0.313
ecg,23,1,35,189.905,440.345,50.4413,0.2983
ecg,23,1,36,190.055,440.5,36.0278,0.136
ecg,23,1,37,190.17,440.575,30.2546,0.1389
ecg,23,1,38,190.295,440.63,17.1056,0.136
ecg,23,1,39,190.435,440.66,7.5908,0.1513
ecg,24,0,0,193.41,440.98,10.7846,0.4275
ecg,24,0,1,193.035,440.83,33.6901,0.3966
ecg,24,0,2,192.765,440.555,57.5281,0.3912
ecg,24,0,3,192.625,440.18,80.5387,0.4258
ecg,24,0,4,192.625,439.765,99.6876,0.4159
ecg,24,0,5,192.765,439.395,122.4731,0.3911
ecg,24,0,6,193.035,439.125,147.5281,0.3912
ecg,24,0,7,193.41,438.98,169.2154,0.4275
ecg,24,0,8,193.83,438.98,10.7846,0.4275
ecg,24,0,9,194.205,439.125,32.4719,0.3912
ecg,24,0,10,194.475,439.395,57.5269,0.3911
ecg,24,0,11,194.62,439.765,78.961,0.4177
ecg,24,0,12,194.62,440.18,100.7826,0.4275
ecg,24,0,13,194.475,440.555,122.4719,0.3912
ecg,24,0,14,194.205,440.83,146.3099,0.3966
ecg,24,0,15,193.83,440.98,169.2154,0.4275
ecg,24,1,0,193.515,439.44,169.2138,0.2138
ecg,24,1,1,193.32,439.52,146.3099,0.2163
ecg,24,1,2,193.17,439.67,123.6878,0.2163
ecg,24,1,3,193.085,439.865,103.3938,0.2159
ecg,24,1,4,193.085,440.08,77.195,0.2256
ecg,24,1,5,193.17,440.28,56.3122,0.2163
ecg,24,1,6,193.32,440.43,33.6901,0.2163
ecg,24,1,7,193.515,440.515,13.3929,0.2159
ecg,24,1,8,193.725,440.515,166.6071,0.2159
ecg,24,1,9,193.925,440.43,147.7237,0.2247
ecg,24,1,10,194.08,440.28,123.6912,0.2163
ecg,24,1,11,194.16,440.08,100.3031,0.2236
ecg,24,1,12,194.16,439.865,79.217,0.2138
ecg,24,1,13,194.08,439.67,56.3088,0.2163
ecg,24,1,14,193.925,439.52,32.2763,0.2247
ecg,24,1,15,193.725,439.44,10.7862,0.2138
ecg,25,0,0,196.925,441.01,0.0,0.63
ecg,25,0,1,197.575,438.625,112.0289,5.1457
ecg,25,0,2,199.195,437.935,68.872,3.6343
ecg,25,0,3,200.505,437.935,111.128,3.6343
ecg,25,0,4,202.12,438.625,68.0745,5.1419
ecg,25,0,5,202.77,441.01,0.0,0.62
ecg,25,0,6,201.81,439.37,68.3795,3.5282
ecg,25,0,7,200.505,439.455,110.7923,3.6903
ecg,25,0,8,199.195,439.495,68.7577,3.6157
ecg,25,0,9,197.89,439.41,112.1095,3.454
ecg,26,0,0,158.405,443.305,114.0071,1.3027
ecg,26,0,1,158.98,442.71,0.0,0.62
ecg,26,0,2,158.18,445.13,114.6399,5.3248
ecg,26,0,3,155.965,445.13,65.4581,5.3207
ecg,26,0,4,155.17,442.71,0.0,0.62
ecg,26,0,5,155.745,443.305,65.9929,1.3027
ecg,26,0,6,157.075,443.9,0.0,2.13
ecg,26,1,0,157.075,444.41,0.0,1.65
ecg,26,1,1,156.66,445.345,66.3227,2.0419
ecg,26,1,2,157.485,445.345,113.934,2.0459
ecg,27,0,0,159.98,442.71,0.0,0.6
ecg,27,0,1,160.28,444.445,90.0,3.47
ecg,27,0,2,161.98,444.35,132.8908,4.9956
ecg,27,0,3,163.68,444.915,90.0,4.79
ecg,27,0,4,163.385,447.31,0.0,0.59
ecg,27,0,5,163.09,445.63,90.0,3.36
ecg,27,0,6,161.385,445.74,133.6068,4.9441
ecg,27,0,7,159.68,445.12,90.0,4.82
ecg,28,0,0,164.79,442.71,0.0,0.6
ecg,28,0,1,165.09,444.445,90.0,3.47
ecg,28,0,2,166.79,444.35,132.8908,4.9956
ecg,28,0,3,168.49,444.915,90.0,4.79
ecg,28,0,4,168.195,447.31,0.0,0.59
ecg,28,0,5,167.9,445.63,90.0,3.36
ecg,28,0,6,166.195,445.74,133.6068,4.9441
ecg,28,0,7,164.49,445.12,90.0,4.82
ecg,29,0,0,169.22,445.855,90.0,2.91
ecg,29,0,1,169.225,444.305,93.0111,0.1903
ecg,29,0,2,169.24,444.12,96.3418,0.1811
ecg,29,0,3,169.27,443.945,103.2434,0.1746
ecg,29,0,4,169.315,443.775,106.3859,0.1772
ecg,29,0,5,169.41,443.54,115.0166,0.3311
ecg,29,0,6,169.58,443.26,127.5709,0.328
ecg,29,0,7,169.8,443.025,138.812,0.3189
ecg,29,0,8,170.065,442.84,151.1136,0.3312
ecg,29,0,9,170.295,442.73,160.5605,0.1803
ecg,29,0,10,170.465,442.68,166.7615,0.1746
ecg,29,0,11,170.64,442.645,170.5377,0.1825
ecg,29,0,12,170.825,442.63,0.0,0.19
ecg,29,0,13,171.015,442.63,0.0,0.19
ecg,29,0,14,171.205,442.645,8.9722,0.1924
ecg,29,0,15,171.385,442.68,13.2385,0.1746
ecg,29,0,16,171.55,442.73,20.5548,0.1709
ecg,29,0,17,171.775,442.84,28.8877,0.3312
ecg,29,0,18,172.045,443.025,40.0312,0.3265
ecg,29,0,19,172.265,443.26,53.8409,0.322
ecg,29,0,20,172.435,443.54,63.4361,0.3354
ecg,29,0,21,172.535,443.775,73.6093,0.1772
ecg,29,0,22,172.58,443.945,76.7566,0.1746
ecg,29,0,23,172.61,444.12,83.663,0.1811
ecg,29,0,24,172.625,444.305,86.9843,0.1903
ecg,29,0,25,172.63,445.855,90.0,2.91
ecg,29,0,26,172.33,447.31,0.0,0.6
ecg,29,0,27,172.03,445.955,90.0,2.71
ecg,29,0,28,172.025,444.46,87.9557,0.2802
ecg,29,0,29,172.0,444.185,81.5709,0.2729
ecg,29,0,30,171.945,443.925,74.3594,0.2596
ecg,29,0,31,171.86,443.69,65.5548,0.2417
ecg,29,0,32,171.735,443.49,50.1968,0.2343
ecg,29,0,33,171.565,443.33,36.3839,0.236
ecg,29,0,34,171.41,443.235,22.6219,0.13
ecg,29,0,35,171.285,443.19,17.0994,0.136
ecg,29,0,36,171.15,443.155,12.0943,0.1432
ecg,29,0,37,171.0,443.14,0.0,0.16
ecg,29,0,38,170.84,443.14,0.0,0.16
ecg,29,0,39,170.69,443.155,167.9057,0.1432
ecg,29,0,40,170.555,443.19,162.8987,0.136
ecg,29,0,41,170.435,443.235,155.5548,0.1208
ecg,29,0,42,170.285,443.33,143.6161,0.236
ecg,29,0,43,170.115,443.49,129.8032,0.2343
ecg,29,0,44,169.985,443.69,116.5651,0.246
ecg,29,0,45,169.9,443.925,103.4985,0.2571
ecg,29,0,46,169.85,444.185,98.4259,0.2729
ecg,29,0,47,169.825,444.46,92.0443,0.2802
ecg,29,0,48,169.82,445.955,90.0,2.71
ecg,29,0,49,169.52,447.31,0.0,0.6
ecg,30,0,0,176.435,443.305,114.0071,1.3027
ecg,30,0,1,177.01,442.71,0.0,0.62
ecg,30,0,2,176.215,445.13,114.5419,5.3207
ecg,30,0,3,174.005,445.13,65.4579,5.3207
ecg,30,0,4,173.21,442.71,0.0,0.62
ecg,30,0,5,173.78,443.305,66.3964,1.2987
ecg,30,0,6,175.105,443.9,0.0,2.13
ecg,30,1,0,175.105,444.41,0.0,1.65
ecg,30,1,1,174.695,445.345,66.066,2.0459
ecg,30,1,2,175.52,445.345,113.6773,2.0419
ecg,31,0,0,178.015,447.31,0.0,0.59
ecg,31,0,1,177.72,445.01,90.0,4.6
ecg,31,0,2,178.72,442.71,0.0,2.0
ecg,31,0,3,179.72,442.965,90.0,0.51
ecg,31,0,4,179.015,443.22,0.0,1.41
ecg,31,0,5,178.31,445.265,90.0,4.09
ecg,32,0,0,183.425,444.755,11.3106,0.255
ecg,32,0,1,183.655,444.825,23.1971,0.2285
ecg,32,0,2,183.855,444.94,36.3861,0.236
ecg,32,0,3,184.03,445.09,45.0,0.2263
ecg,32,0,4,184.17,445.26,56.3099,0.2163
ecg,32,0,5,184.275,445.455,66.7994,0.2285
ecg,32,0,6,184.35,445.67,74.7456,0.228
ecg,32,0,7,184.39,445.9,85.2352,0.2408
ecg,32,0,8,184.38,446.18,97.1264,0.3225
ecg,32,0,9,184.305,446.485,110.7728,0.3102
ecg,32,0,10,184.16,446.76,124.6931,0.3162
ecg,32,0,11,183.945,446.99,141.3406,0.3202
ecg,32,0,12,183.675,447.155,155.8543,0.3178
ecg,32,0,13,183.37,447.25,169.3805,0.3256
ecg,32,0,14,183.05,447.29,176.423,0.3206
ecg,32,0,15,182.73,447.305,178.211,0.3201
ecg,32,0,16,182.21,447.31,0.0,0.72
ecg,32,0,17,181.85,445.01,90.0,4.6
ecg,32,0,18,182.145,442.71,0.0,0.59
ecg,32,0,19,182.44,443.69,90.0,1.96
ecg,32,0,20,182.565,444.67,0.0,0.25
ecg,32,0,21,183.38,443.69,125.1487,2.3971
ecg,32,0,22,184.41,442.71,0.0,0.68
ecg,32,0,23,184.025,443.72,125.6715,2.4865
ecg,32,1,0,182.52,446.8,0.0,0.16
ecg,32,1,1,182.71,446.795,177.3949,0.2202
ecg,32,1,2,182.935,446.78,175.0291,0.2309
ecg,32,1,3,183.16,446.75,169.6969,0.2236
ecg,32,1,4,183.365,446.695,159.7734,0.2025
ecg,32,1,5,183.55,446.61,150.9466,0.2059
ecg,32,1,6,183.705,446.49,132.8801,0.1911
ecg,32,1,7,183.815,446.325,115.345,0.2102
ecg,32,1,8,183.875,446.115,97.4312,0.2319
ecg,32,1,9,183.875,445.88,82.8754,0.2419
ecg,32,1,10,183.82,445.665,67.1661,0.2062
ecg,32,1,11,183.715,445.5,47.1233,0.191
ecg,32,1,12,183.57,445.375,34.5081,0.1942
ecg,32,1,13,183.395,445.285,20.2225,0.2025
ecg,32,1,14,183.19,445.23,10.3069,0.2236
ecg,32,1,15,182.97,445.2,5.1916,0.2209
ecg,32,1,16,182.745,445.185,2.492,0.2302
ecg,32,1,17,182.535,445.18,0.0,0.19
ecg,32,1,18,182.44,445.99,90.0,1.62
ecg,33,0,0,188.205,443.305,114.0071,1.3027
ecg,33,0,1,188.78,442.71,0.0,0.62
ecg,33,0,2,187.985,445.13,114.5419,5.3207
ecg,33,0,3,185.77,445.13,65.3601,5.3248
ecg,33,0,4,184.975,442.71,0.0,0.63
ecg,33,0,5,185.55,443.305,66.3964,1.2987
ecg,33,0,6,186.875,443.9,0.0,2.13
ecg,33,1,0,186.875,444.41,0.0,1.65
ecg,33,1,1,186.465,445.345,66.066,2.0459
ecg,33,1,2,187.29,445.345,113.6773,2.0419
ecg,34,0,0,191.31,446.8,0.0,1.1
ecg,34,0,1,191.86,447.055,90.0,0.51
ecg,34,0,2,190.465,447.31,0.0,2.79
ecg,34,0,3,189.07,447.055,90.0,0.51
ecg,34,0,4,189.62,446.8,0.0,1.1
ecg,34,0,5,190.17,444.755,90.0,4.09
ecg,34,0,6,190.465,442.71,0.0,0.59
ecg,34,0,7,190.76,444.755,90.0,4.09
ecg,35,0,0,193.53,442.71,0.0,2.5
ecg,35,0,1,194.78,442.965,90.0,0.51
ecg,35,0,2,193.83,443.22,0.0,1.9
ecg,35,0,3,192.88,444.115,90.0,1.79
ecg,35,0,4,193.805,445.01,0.0,1.85
ecg,35,0,5,194.73,445.265,90.0,0.51
ecg,35,0,6,193.805,445.52,0.0,1.85
ecg,35,0,7,192.88,446.16,90.0,1.28
ecg,35,0,8,193.83,446.8,0.0,1.9
ecg,35,0,9,194.78,447.055,90.0,0.51
ecg,35,0,10,193.53,447.31,0.0,2.5
ecg,35,0,11,192.28,445.01,90.0,4.6
ecg,36,0,0,199.21,447.475,2.3846,0.2402
ecg,36,0,1,198.97,447.45,9.4647,0.2433
ecg,36,0,2,198.735,447.4,14.6196,0.2377
ecg,36,0,3,198.51,447.33,19.9847,0.2341
ecg,36,0,4,198.29,447.24,24.4419,0.2417
ecg,36,0,5,198.08,447.13,30.9644,0.2333
ecg,36,0,6,197.89,447.0,37.876,0.228
ecg,36,0,7,197.71,446.85,41.6329,0.2408
ecg,36,0,8,197.545,446.685,48.5772,0.2267
ecg,36,0,9,197.395,446.51,50.1944,0.2343
ecg,36,0,10,197.26,446.32,59.0337,0.2332
ecg,36,0,11,197.15,446.11,65.5581,0.2417
ecg,36,0,12,197.055,445.89,67.7485,0.2377
ecg,36,0,13,196.98,445.665,75.3794,0.2377
ecg,36,0,14,196.935,445.425,83.1575,0.2518
ecg,36,0,15,196.91,445.175,85.4286,0.2508
ecg,36,0,16,196.91,444.92,94.3961,0.2608
ecg,36,0,17,196.935,444.665,96.8425,0.2518
ecg,36,0,18,196.98,444.425,104.6206,0.2377
ecg,36,0,19,197.055,444.195,111.3735,0.247
ecg,36,0,20,197.15,443.975,115.4606,0.2326
ecg,36,0,21,197.26,443.77,120.9663,0.2332
ecg,36,0,22,197.39,443.575,126.3839,0.236
ecg,36,0,23,197.54,443.395,133.2625,0.2334
ecg,36,0,24,197.705,443.235,138.5768,0.2267
ecg,36,0,25,197.885,443.09,143.6139,0.236
ecg,36,0,26,198.08,442.96,149.0388,0.2332
ecg,36,0,27,198.285,442.855,156.8014,0.2285
ecg,36,0,28,198.5,442.77,160.0166,0.2341
ecg,36,0,29,198.725,442.7,165.3794,0.2377
ecg,36,0,30,198.96,442.655,172.8754,0.2419
ecg,36,0,31,199.205,442.635,177.7072,0.2502
ecg,36,0,32,199.455,442.635,2.2928,0.2502
ecg,36,0,33,199.695,442.655,7.4312,0.2319
ecg,36,0,34,199.93,442.7,14.0354,0.2474
ecg,36,0,35,200.16,442.77,19.9834,0.2341
ecg,36,0,36,200.375,442.855,23.1986,0.2285
ecg,36,0,37,200.58,442.96,30.9612,0.2332
ecg,36,0,38,200.775,443.09,36.3861,0.236
ecg,36,0,39,200.955,443.235,41.4232,0.2267
ecg,36,0,40,201.12,443.395,46.7375,0.2334
ecg,36,0,41,201.27,443.575,53.6161,0.236
ecg,36,0,42,201.4,443.77,59.0337,0.2332
ecg,36,0,43,201.51,443.975,64.5394,0.2326
ecg,36,0,44,201.605,444.195,68.6265,0.247
ecg,36,0,45,201.68,444.425,75.3794,0.2377
ecg,36,0,46,201.725,444.665,83.1575,0.2518
ecg,36,0,47,201.75,444.92,85.6039,0.2608
ecg,36,0,48,201.75,445.175,94.5714,0.2508
ecg,36,0,49,201.725,445.425,96.8425,0.2518
ecg,36,0,50,201.675,445.665,106.9295,0.2404
ecg,36,0,51,201.6,445.89,109.9834,0.2341
ecg,36,0,52,201.51,446.11,114.4419,0.2417
ecg,36,0,53,201.395,446.32,123.0253,0.2385
ecg,36,0,54,201.26,446.51,127.876,0.228
ecg,36,0,55,201.115,446.685,131.4228,0.2267
ecg,36,0,56,200.95,446.85,138.3671,0.2408
ecg,36,0,57,200.765,447.0,143.6161,0.236
ecg,36,0,58,200.57,447.13,149.0337,0.2332
ecg,36,0,59,200.365,447.24,154.5394,0.2326
ecg,36,0,60,200.15,447.33,160.0153,0.2341
ecg,36,0,61,199.925,447.4,165.3804,0.2377
ecg,36,0,62,199.69,447.45,170.5353,0.2433
ecg,36,0,63,199.45,447.475,177.6154,0.2402
ecg,36,1,0,199.24,443.145,176.8218,0.1803
ecg,36,1,1,199.06,443.16,173.6587,0.1811
ecg,36,1,2,198.88,443.195,164.4744,0.1868
ecg,36,1,3,198.71,443.25,159.4452,0.1709
ecg,36,1,4,198.475,443.37,149.8594,0.3585
ecg,36,1,5,198.18,443.575,140.5979,0.3624
ecg,36,1,6,197.93,443.83,128.1575,0.3561
ecg,36,1,7,197.735,444.135,117.2549,0.3712
ecg,36,1,8,197.615,444.385,112.3825,0.1838
ecg,36,1,9,197.56,444.565,101.8875,0.1942
ecg,36,1,10,197.525,444.755,98.9766,0.1924
ecg,36,1,11,197.505,444.95,92.8607,0.2003
ecg,36,1,12,197.505,445.145,86.9887,0.1902
ecg,36,1,13,197.52,445.335,83.9898,0.1911
ecg,36,1,14,197.555,445.525,75.2558,0.1965
ecg,36,1,15,197.605,445.705,73.6093,0.1772
ecg,36,1,16,197.71,445.955,64.1333,0.3667
ecg,36,1,17,197.9,446.26,51.8444,0.3561
ecg,36,1,18,198.145,446.52,41.6337,0.3613
ecg,36,1,19,198.435,446.725,28.7397,0.3536
ecg,36,1,20,198.675,446.845,22.3781,0.1838
ecg,36,1,21,198.85,446.905,15.5244,0.1868
ecg,36,1,22,199.035,446.945,8.9722,0.1924
ecg,36,1,23,199.23,446.965,2.8652,0.2002
ecg,36,1,24,199.43,446.965,177.1348,0.2002
ecg,36,1,25,199.625,446.945,171.0278,0.1924
ecg,36,1,26,199.81,446.905,164.4756,0.1868
ecg,36,1,27,199.985,446.845,157.6219,0.1838
ecg,36,1,28,200.225,446.725,151.2603,0.3536
ecg,36,1,29,200.515,446.52,138.3663,0.3613
ecg,36,1,30,200.755,446.26,126.8689,0.35
ecg,36,1,31,200.945,445.955,117.2549,0.3712
ecg,36,1,32,201.055,445.705,106.3907,0.1772
ecg,36,1,33,201.105,445.525,104.7442,0.1965
ecg,36,1,34,201.14,445.335,96.0102,0.1911
ecg,36,1,35,201.155,445.145,93.0113,0.1902
ecg,36,1,36,201.155,444.95,87.1393,0.2003
ecg,36,1,37,201.135,444.755,81.0234,0.1924
ecg,36,1,38,201.1,444.565,78.1125,0.1942
ecg,36,1,39,201.045,444.385,67.6175,0.1838
ecg,36,1,40,200.925,444.135,62.7451,0.3712
ecg,36,1,41,200.73,443.83,51.8425,0.3561
ecg,36,1,42,200.48,443.575,39.4021,0.3624
ecg,36,1,43,200.185,443.37,30.1406,0.3585
ecg,36,1,44,199.95,443.25,20.5548,0.1709
ecg,36,1,45,199.78,443.195,15.5256,0.1868
ecg,36,1,46,199.6,443.16,6.3413,0.1811
ecg,36,1,47,199.42,443.145,3.1782,0.1803
ecg,37,0,0,204.58,447.055,90.0,0.51
ecg,37,0,1,203.45,447.31,0.0,2.26
ecg,37,0,2,202.32,445.01,90.0,4.6
ecg,37,0,3,202.62,442.71,0.0,0.6
ecg,37,0,4,202.92,443.86,90.0,2.3
ecg,37,0,5,203.72,445.01,0.0,1.6
ecg,37,0,6,204.52,445.265,90.0,0.51
ecg,37,0,7,203.72,445.52,0.0,1.6
ecg,37,0,8,202.92,446.16,90.0,1.28
ecg,37,0,9,203.75,446.8,0.0,1.66
ecg,38,0,0,210.245,447.245,154.2896,0.2997
ecg,38,0,1,209.965,447.355,162.7588,0.3036
ecg,38,0,2,209.67,447.43,168.6906,0.3059
ecg,38,0,3,209.37,447.47,176.1852,0.3007
ecg,38,0,4,209.095,447.475,2.2928,0.2502
ecg,38,0,5,208.845,447.45,9.0888,0.2532
ecg,38,0,6,208.6,447.4,14.0362,0.2474
ecg,38,0,7,208.37,447.33,19.9834,0.2341
ecg,38,0,8,208.15,447.24,24.4452,0.2417
ecg,38,0,9,207.94,447.13,30.9631,0.2332
ecg,38,0,10,207.745,447.0,36.3839,0.236
ecg,38,0,11,207.56,446.85,41.6329,0.2408
ecg,38,0,12,207.39,446.685,46.7347,0.2335
ecg,38,0,13,207.24,446.505,53.6161,0.236
ecg,38,0,14,207.105,446.31,56.9778,0.2385
ecg,38,0,15,206.99,446.105,64.5344,0.2326
ecg,38,0,16,206.895,445.885,68.6311,0.247
ecg,38,0,17,206.82,445.65,75.9638,0.2474
ecg,38,0,18,206.77,445.405,80.9078,0.2532
ecg,38,0,19,206.745,445.155,87.7106,0.2502
ecg,38,0,20,206.745,444.905,92.2894,0.2502
ecg,38,0,21,206.77,444.655,99.0922,0.2532
ecg,38,0,22,206.82,444.415,104.6196,0.2377
ecg,38,0,23,206.895,444.19,112.2481,0.2377
ecg,38,0,24,206.99,443.975,115.4656,0.2326
ecg,38,0,25,207.1,443.77,120.9631,0.2332
ecg,38,0,26,207.23,443.58,127.8736,0.228
ecg,38,0,27,207.38,443.405,133.2653,0.2335
ecg,38,0,28,207.545,443.24,136.7347,0.2335
ecg,38,0,29,207.725,443.095,145.6221,0.2302
ecg,38,0,30,207.92,442.97,149.0337,0.2332
ecg,38,0,31,208.125,442.86,154.5394,0.2326
ecg,38,0,32,208.345,442.77,160.8203,0.2435
ecg,38,0,33,208.575,442.7,165.3794,0.2377
ecg,38,0,34,208.81,442.655,172.8754,0.2419
ecg,38,0,35,209.05,442.635,177.6116,0.2402
ecg,38,0,36,209.325,442.64,3.692,0.3107
ecg,38,0,37,209.64,442.68,10.6195,0.3256
ecg,38,0,38,209.95,442.76,18.4358,0.3162
ecg,38,0,39,210.24,442.875,24.9031,0.3087
ecg,38,0,40,210.38,443.28,90.0,0.68
ecg,38,0,41,210.245,443.515,37.8754,0.3421
ecg,38,0,42,209.96,443.335,26.5639,0.3354
ecg,38,0,43,209.65,443.215,15.7084,0.3324
ecg,38,0,44,209.32,443.155,5.0423,0.3413
ecg,38,0,45,209.055,443.145,176.9889,0.1903
ecg,38,0,46,208.87,443.165,170.5385,0.1825
ecg,38,0,47,208.69,443.2,167.4727,0.1844
ecg,38,0,48,208.515,443.255,157.6175,0.1838
ecg,38,0,49,208.275,443.38,149.8594,0.3585
ecg,38,0,50,207.99,443.585,138.5032,0.3471
ecg,38,0,51,207.75,443.845,127.1855,0.364
ecg,38,0,52,207.56,444.15,116.5629,0.3578
ecg,38,0,53,207.45,444.4,108.4393,0.1897
ecg,38,0,54,207.395,444.58,105.5199,0.1868
ecg,38,0,55,207.36,444.76,96.3418,0.1811
ecg,38,0,56,207.345,444.95,92.8609,0.2002
ecg,38,0,57,207.345,445.145,86.9889,0.1903
ecg,38,0,58,207.36,445.335,83.9898,0.1911
ecg,38,0,59,207.395,445.52,74.4789,0.1868
ecg,38,0,60,207.45,445.7,71.5621,0.1897
ecg,38,0,61,207.56,445.95,63.436,0.3578
ecg,38,0,62,207.75,446.255,52.816,0.364
ecg,38,0,63,207.995,446.515,40.4251,0.3547
ecg,38,0,64,208.285,446.72,30.1427,0.3585
ecg,38,0,65,208.525,446.845,22.3781,0.1838
ecg,38,0,66,208.7,446.905,15.5244,0.1868
ecg,38,0,67,208.88,446.945,9.4623,0.1825
ecg,38,0,68,209.065,446.965,3.0111,0.1903
ecg,38,0,69,209.325,446.955,174.8058,0.3314
ecg,38,0,70,209.65,446.895,164.2916,0.3324
ecg,38,0,71,209.96,446.775,153.4361,0.3354
ecg,38,0,72,210.245,446.605,144.8659,0.3302
ecg,38,0,73,210.38,446.845,90.0,0.67
ecg,39,0,0,211.64,446.37,90.0,1.88
ecg,39,0,1,211.345,447.31,0.0,0.59
ecg,39,0,2,211.05,445.01,90.0,4.6
ecg,39,0,3,211.345,442.71,0.0,0.59
ecg,39,0,4,211.64,443.815,90.0,2.21
ecg,39,0,5,212.705,444.92,0.0,2.13
ecg,39,0,6,213.77,443.815,90.0,2.21
ecg,39,0,7,214.07,442.71,0.0,0.6
ecg,39,0,8,214.37,445.01,90.0,4.6
ecg,39,0,9,214.07,447.31,0.0,0.6
ecg,39,0,10,213.77,446.37,90.0,1.88
ecg,39,0,11,212.705,445.43,0.0,2.13
ecg,40,0,0,218.215,443.305,114.0071,1.3027
ecg,40,0,1,218.79,442.71,0.0,0.62
ecg,40,0,2,217.995,445.13,114.5419,5.3207
ecg,40,0,3,215.785,445.13,65.4579,5.3207
ecg,40,0,4,214.99,442.71,0.0,0.62
ecg,40,0,5,215.56,443.305,66.3964,1.2987
ecg,40,0,6,216.885,443.9,0.0,2.13
ecg,40,1,0,216.885,444.41,0.0,1.65
ecg,40,1,1,216.475,445.345,66.066,2.0459
ecg,40,1,2,217.3,445.345,113.6773,2.0419
ecg,41,0,0,219.795,442.71,0.0,0.59
ecg,41,0,1,220.09,444.445,90.0,3.47
ecg,41,0,2,221.795,444.35,132.9748,5.0024
ecg,41,0,3,223.5,444.915,90.0,4.79
ecg,41,0,4,223.2,447.31,0.0,0.6
ecg,41,0,5,222.9,445.63,90.0,3.36
ecg,41,0,6,221.2,445.74,133.5227,4.9372
ecg,41,0,7,219.5,445.12,90.0,4.82
ecg,42,0,0,226.72,444.755,90.0,0.51
ecg,42,0,1,227.3,444.5,0.0,1.16
ecg,42,0,2,227.86,444.36,81.8681,0.2828
ecg,42,0,3,227.79,444.095,68.2004,0.2693
ecg,42,0,4,227.665,443.855,56.8883,0.2746
ecg,42,0,5,227.495,443.64,46.468,0.2759
ecg,42,0,6,227.285,443.455,36.4694,0.286
ecg,42,0,7,227.05,443.305,28.4448,0.2729
ecg,42,0,8,226.8,443.2,17.1025,0.272
ecg,42,0,9,226.535,443.15,4.234,0.2707
ecg,42,0,10,226.31,443.145,176.8218,0.1803
ecg,42,0,11,226.135,443.165,169.9923,0.1726
ecg,42,0,12,225.965,443.205,163.6093,0.1772
ecg,42,0,13,225.8,443.26,159.4452,0.1709
ecg,42,0,14,225.57,443.38,149.0354,0.3499
ecg,42,0,15,225.29,443.59,137.2912,0.3538
ecg,42,0,16,225.055,443.85,126.8709,0.35
ecg,42,0,17,224.87,444.15,116.5629,0.3578
ecg,42,0,18,224.735,444.475,108.4349,0.3479
ecg,42,0,19,224.665,444.82,94.7659,0.3612
ecg,42,0,20,224.655,445.1,87.1348,0.2002
ecg,42,0,21,224.67,445.295,83.9898,0.1911
ecg,42,0,22,224.705,445.485,75.2601,0.1965
ecg,42,0,23,224.76,445.67,71.5607,0.1897
ecg,42,0,24,224.87,445.93,64.8002,0.3758
ecg,42,0,25,225.06,446.245,52.816,0.364
ecg,42,0,26,225.305,446.51,41.6319,0.3612
ecg,42,0,27,225.59,446.72,30.9646,0.3499
ecg,42,0,28,225.825,446.845,22.3781,0.1838
ecg,42,0,29,225.995,446.905,16.3907,0.1772
ecg,42,0,30,226.17,446.945,9.4623,0.1825
ecg,42,0,31,226.355,446.965,3.0157,0.1903
ecg,42,0,32,226.555,446.96,174.5587,0.211
ecg,42,0,33,226.76,446.93,168.6875,0.204
ecg,42,0,34,226.96,446.875,160.7117,0.2119
ecg,42,0,35,227.155,446.795,154.655,0.2102
ecg,42,0,36,227.34,446.69,146.3088,0.2163
ecg,42,0,37,227.51,446.565,140.9063,0.2061
ecg,42,0,38,227.665,446.425,135.0,0.2121
ecg,42,0,39,227.805,446.265,127.4034,0.214
ecg,42,0,40,228.06,446.38,46.4691,0.5517
ecg,42,0,41,228.165,446.685,128.9918,0.2702
ecg,42,0,42,227.98,446.88,138.0111,0.2691
ecg,42,0,43,227.775,447.045,144.4643,0.2581
ecg,42,0,44,227.555,447.185,150.5227,0.2642
ecg,42,0,45,227.32,447.3,157.3825,0.26
ecg,42,0,46,227.075,447.385,164.3562,0.2596
ecg,42,0,47,226.82,447.44,171.2551,0.2631
ecg,42,0,48,226.56,447.47,175.6003,0.2608
ecg,42,0,49,226.31,447.47,4.7645,0.2408
ecg,42,0,50,226.07,447.445,7.1246,0.2419
ecg,42,0,51,225.84,447.4,15.2544,0.228
ecg,42,0,52,225.62,447.325,22.2481,0.2377
ecg,42,0,53,225.405,447.23,25.4656,0.2326
ecg,42,0,54,225.2,447.12,30.9631,0.2332
ecg,42,0,55,225.01,446.985,39.806,0.2343
ecg,42,0,56,224.835,446.83,43.2625,0.2334
ecg,42,0,57,224.675,446.665,48.5772,0.2267
ecg,42,0,58,224.53,446.48,55.0097,0.2441
ecg,42,0,59,224.4,446.28,59.0337,0.2332
ecg,42,0,60,224.29,446.07,65.5581,0.2417
ecg,42,0,61,224.2,445.845,70.8203,0.2435
ecg,42,0,62,224.13,445.61,75.9646,0.2474
ecg,42,0,63,224.08,445.365,80.9078,0.2532
ecg,42,0,64,224.055,445.11,87.7986,0.2602
ecg,42,0,65,224.055,444.865,92.4882,0.2302
ecg,42,0,66,224.08,444.635,99.8674,0.2335
ecg,42,0,67,224.13,444.405,104.6206,0.2377
ecg,42,0,68,224.2,444.185,110.8557,0.2247
ecg,42,0,69,224.285,443.98,114.2256,0.2193
ecg,42,0,70,224.39,443.78,120.9631,0.2332
ecg,42,0,71,224.52,443.59,127.876,0.228
ecg,42,0,72,224.665,443.415,131.4257,0.2267
ecg,42,0,73,224.82,443.255,136.8438,0.2193
ecg,42,0,74,224.99,443.11,142.1264,0.228
ecg,42,0,75,225.175,442.98,147.7257,0.2247
ecg,42,0,76,225.37,442.87,153.4332,0.2236
ecg,42,0,77,225.575,442.775,156.8029,0.2285
ecg,42,0,78,225.795,442.705,167.7343,0.2354
ecg,42,0,79,226.02,442.66,169.6969,0.2236
ecg,42,0,80,226.25,442.635,177.6116,0.2402
ecg,42,0,81,226.485,442.635,2.4919,0.2302
ecg,42,0,82,226.71,442.655,7.7648,0.222
ecg,42,0,83,226.925,442.695,13.3938,0.2159
ecg,42,0,84,227.13,442.755,19.2883,0.2119
ecg,42,0,85,227.325,442.835,25.345,0.2102
ecg,42,0,86,227.505,442.935,32.9057,0.2025
ecg,42,0,87,227.67,443.055,39.0943,0.2062
ecg,42,0,88,227.825,443.19,43.0261,0.2052
ecg,42,0,89,227.965,443.335,49.0834,0.1985
ecg,42,0,90,228.085,443.495,57.0967,0.2025
ecg,42,0,91,228.19,443.675,62.2384,0.2147
ecg,42,0,92,228.285,443.865,64.655,0.2102
ecg,42,0,93,228.36,444.06,73.3012,0.2088
ecg,42,0,94,228.415,444.27,77.195,0.2256
ecg,42,0,95,228.455,444.49,82.2352,0.222
ecg,42,0,96,228.475,444.715,87.5119,0.2302
ecg,42,0,97,228.48,444.92,90.0,0.18
ecg,42,0,98,227.6,445.01,0.0,1.76
ecg,43,0,0,230.34,442.71,0.0,2.5
ecg,43,0,1,231.59,442.965,90.0,0.51
ecg,43,0,2,230.64,443.22,0.0,1.9
ecg,43,0,3,229.69,444.115,90.0,1.79
ecg,43,0,4,230.615,445.01,0.0,1.85
ecg,43,0,5,231.54,445.265,90.0,0.51
ecg,43,0,6,230.615,445.52,0.0,1.85
ecg,43,0,7,229.69,446.16,90.0,1.28
ecg,43,0,8,230.64,446.8,0.0,1.9
ecg,43,0,9,231.59,447.055,90.0,0.51
ecg,43,0,10,230.34,447.31,0.0,2.5
ecg,43,0,11,229.09,445.01,90.0,4.6
ecg,44,0,0,173.43,452.15,90.0,2.92
ecg,44,0,1,173.43,450.595,90.0,0.19
ecg,44,0,2,173.425,450.395,87.2753,0.2102
ecg,44,0,3,173.41,450.19,84.2881,0.201
ecg,44,0,4,173.38,449.99,78.6875,0.204
ecg,44,0,5,173.32,449.8,66.0402,0.197
ecg,44,0,6,173.22,449.64,49.3961,0.1844
ecg,44,0,7,173.125,449.54,40.6106,0.0922
ecg,44,0,8,173.045,449.49,23.9598,0.0985
ecg,44,0,9,172.95,449.46,11.3116,0.102
ecg,44,0,10,172.84,449.445,4.7612,0.1204
ecg,44,0,11,172.66,449.46,170.5394,0.2433
ecg,44,0,12,172.43,449.535,153.4349,0.246
ecg,44,0,13,172.18,449.355,59.216,0.5471
ecg,44,0,14,172.125,449.075,152.1034,0.1924
ecg,44,0,15,172.295,449.0,160.5605,0.1803
ecg,44,0,16,172.47,448.955,170.5385,0.1825
ecg,44,0,17,172.66,448.935,177.1391,0.2002
ecg,44,0,18,172.855,448.935,3.0111,0.1903
ecg,44,0,19,173.04,448.955,9.4623,0.1825
ecg,44,0,20,173.205,448.99,14.9282,0.1552
ecg,44,0,21,173.35,449.045,26.5675,0.1565
ecg,44,0,22,173.53,449.165,37.6938,0.278
ecg,44,0,23,173.72,449.36,53.9748,0.272
ecg,44,0,24,173.855,449.605,67.8339,0.2916
ecg,44,0,25,173.945,449.89,76.8641,0.308
ecg,44,0,26,174.0,450.2,82.8763,0.3225
ecg,44,0,27,174.025,450.525,88.2626,0.3302
ecg,44,0,28,174.03,452.15,90.0,2.92
ecg,44,0,29,173.73,453.61,0.0,0.6
ecg,45,0,0,177.83,449.605,113.6042,1.2987
ecg,45,0,1,178.405,449.01,0.0,0.63
ecg,45,0,2,177.61,451.43,114.6399,5.3248
ecg,45,0,3,175.395,451.43,65.4581,5.3207
ecg,45,0,4,174.6,449.01,0.0,0.62
ecg,45,0,5,175.175,449.605,65.9929,1.3027
ecg,45,0,6,176.505,450.2,0.0,2.13
ecg,45,1,0,176.505,450.71,0.0,1.65
ecg,45,1,1,176.09,451.645,66.3227,2.0419
ecg,45,1,2,176.915,451.645,113.934,2.0459
ecg,46,0,0,179.41,449.01,0.0,0.6
ecg,46,0,1,179.71,450.745,90.0,3.47
ecg,46,0,2,181.41,450.65,132.8908,4.9956
ecg,46,0,3,183.11,451.215,90.0,4.79
ecg,46,0,4,182.81,453.61,0.0,0.6
ecg,46,0,5,182.51,451.93,90.0,3.36
ecg,46,0,6,180.81,452.04,133.5227,4.9372
ecg,46,0,7,179.11,451.42,90.0,4.82
ecg,47,0,0,183.84,452.155,90.0,2.91
ecg,47,0,1,183.84,450.605,90.0,0.19
ecg,47,0,2,183.855,450.42,99.4623,0.1825
ecg,47,0,3,183.885,450.245,100.0077,0.1726
ecg,47,0,4,183.925,450.075,106.3907,0.1772
ecg,47,0,5,184.025,449.84,116.5639,0.3354
ecg,47,0,6,184.195,449.56,126.1591,0.322
ecg,47,0,7,184.415,449.325,139.9688,0.3265
ecg,47,0,8,184.685,449.14,151.1136,0.3312
ecg,47,0,9,184.91,449.03,159.4434,0.1709
ecg,47,0,10,185.075,448.98,166.7626,0.1747
ecg,47,0,11,185.255,448.95,173.9893,0.191
ecg,47,0,12,185.445,448.935,176.9889,0.1903
ecg,47,0,13,185.635,448.935,3.0111,0.1903
ecg,47,0,14,185.82,448.95,6.3413,0.1811
ecg,47,0,15,186.0,448.98,12.5273,0.1844
ecg,47,0,16,186.17,449.03,20.5548,0.1709
ecg,47,0,17,186.395,449.14,28.8877,0.3312
ecg,47,0,18,186.66,449.325,41.1862,0.3189
ecg,47,0,19,186.88,449.56,52.4312,0.328
ecg,47,0,20,187.05,449.84,64.9834,0.3311
ecg,47,0,21,187.145,450.075,73.6093,0.1772
ecg,47,0,22,187.19,450.245,76.7615,0.1746
ecg,47,0,23,187.22,450.42,83.6582,0.1811
ecg,47,0,24,187.235,450.605,86.9889,0.1903
ecg,47,0,25,187.24,452.155,90.0,2.91
ecg,47,0,26,186.945,453.61,0.0,0.59
ecg,47,0,27,186.65,452.255,90.0,2.71
ecg,47,0,28,186.64,450.76,85.9135,0.2807
ecg,47,0,29,186.615,450.485,83.6598,0.2717
ecg,47,0,30,186.565,450.225,74.3594,0.2596
ecg,47,0,31,186.475,449.99,63.4349,0.246
ecg,47,0,32,186.35,449.79,52.1264,0.228
ecg,47,0,33,186.18,449.63,34.9923,0.2441
ecg,47,0,34,186.025,449.535,24.4452,0.1208
ecg,47,0,35,185.905,449.49,17.0994,0.136
ecg,47,0,36,185.77,449.46,8.1319,0.1414
ecg,47,0,37,185.62,449.445,3.5743,0.1603
ecg,47,0,38,185.46,449.445,176.4257,0.1603
ecg,47,0,39,185.31,449.46,171.8681,0.1414
ecg,47,0,40,185.175,449.49,162.8987,0.136
ecg,47,0,41,185.05,449.535,157.3807,0.13
ecg,47,0,42,184.895,449.63,143.6139,0.236
ecg,47,0,43,184.725,449.79,129.806,0.2343
ecg,47,0,44,184.6,449.99,114.4419,0.2417
ecg,47,0,45,184.515,450.225,105.6438,0.2596
ecg,47,0,46,184.46,450.485,98.4259,0.2729
ecg,47,0,47,184.435,450.76,92.0474,0.2802
ecg,47,0,48,184.43,452.255,90.0,2.71
ecg,47,0,49,184.135,453.61,0.0,0.59
ecg,48,0,0,191.055,449.605,114.0071,1.3027
ecg,48,0,1,191.63,449.01,0.0,0.62
ecg,48,0,2,190.835,451.43,114.5419,5.3207
ecg,48,0,3,188.62,451.43,65.3601,5.3248
ecg,48,0,4,187.82,449.01,0.0,0.62
ecg,48,0,5,188.395,449.605,65.9929,1.3027
ecg,48,0,6,189.725,450.2,0.0,2.13
ecg,48,1,0,189.725,450.71,0.0,1.65
ecg,48,1,1,189.315,451.645,66.066,2.0459
ecg,48,1,2,190.14,451.645,113.6773,2.0419
ecg,49,0,0,193.91,451.055,11.7687,0.2452
ecg,49,0,1,194.14,451.13,24.4419,0.2417
ecg,49,0,2,194.34,451.245,35.8398,0.222
ecg,49,0,3,194.51,451.39,45.0,0.2263
ecg,49,0,4,194.655,451.56,54.1634,0.222
ecg,49,0,5,194.765,451.755,66.7994,0.2285
ecg,49,0,6,194.84,451.975,75.3794,0.2377
ecg,49,0,7,194.88,452.205,85.0291,0.2309
ecg,49,0,8,194.87,452.48,97.1264,0.3225
ecg,49,0,9,194.79,452.785,112.4791,0.3138
ecg,49,0,10,194.64,453.06,124.6953,0.3162
ecg,49,0,11,194.43,453.295,138.8141,0.3189
ecg,49,0,12,194.16,453.46,158.1971,0.3231
ecg,49,0,13,193.855,453.55,169.0463,0.3158
ecg,49,0,14,193.535,453.59,176.5311,0.3306
ecg,49,0,15,193.21,453.605,178.2111,0.3202
ecg,49,0,16,192.69,453.61,0.0,0.72
ecg,49,0,17,192.33,451.31,90.0,4.6
ecg,49,0,18,192.63,449.01,0.0,0.6
ecg,49,0,19,192.93,449.99,90.0,1.96
ecg,49,0,20,193.05,450.97,0.0,0.24
ecg,49,0,21,193.86,449.99,125.1484,2.3971
ecg,49,0,22,194.89,449.01,0.0,0.68
ecg,49,0,23,194.51,450.02,125.484,2.4807
ecg,49,1,0,193.01,453.1,0.0,0.16
ecg,49,1,1,193.2,453.095,177.3949,0.2202
ecg,49,1,2,193.42,453.08,174.8045,0.2209
ecg,49,1,3,193.64,453.05,169.6969,0.2236
ecg,49,1,4,193.85,452.995,160.7078,0.2119
ecg,49,1,5,194.035,452.91,149.5365,0.1972
ecg,49,1,6,194.19,452.79,135.0,0.198
ecg,49,1,7,194.3,452.625,112.8339,0.2062
ecg,49,1,8,194.355,452.415,97.4312,0.2319
ecg,49,1,9,194.36,452.18,85.2355,0.2408
ecg,49,1,10,194.305,451.965,64.655,0.2102
ecg,49,1,11,194.2,451.8,49.3997,0.1844
ecg,49,1,12,194.055,451.675,32.9033,0.2025
ecg,49,1,13,193.875,451.585,20.224,0.2025
ecg,49,1,14,193.675,451.53,10.7862,0.2138
ecg,49,1,15,193.455,451.5,4.9671,0.2309
ecg,49,1,16,193.23,451.485,2.6051,0.2202
ecg,49,1,17,193.025,451.48,0.0,0.19
ecg,49,1,18,192.93,452.29,90.0,1.62
ecg,50,0,0,196.68,450.03,90.0,2.04
ecg,50,0,1,196.98,449.01,0.0,0.6
ecg,50,0,2,197.28,450.03,90.0,2.04
ecg,50,0,3,198.035,452.33,59.4661,2.9721
ecg,50,0,4,198.455,453.61,0.0,0.67
ecg,50,0,5,197.55,452.645,59.4307,2.2415
ecg,50,0,6,196.41,452.645,120.5693,2.2415
ecg,50,0,7,195.505,453.61,0.0,0.67
ecg,50,0,8,195.925,452.33,120.5339,2.9721
ecg,51,0,0,202.685,450.47,51.5246,2.4269
ecg,51,0,1,203.505,451.53,59.42,0.2555
ecg,51,0,2,203.62,451.76,67.3794,0.26
ecg,51,0,3,203.7,452.005,76.5048,0.2571
ecg,51,0,4,203.74,452.26,85.6003,0.2608
ecg,51,0,5,203.735,452.54,95.7132,0.3015
ecg,51,0,6,203.68,452.82,107.1004,0.272
ecg,51,0,7,203.575,453.07,118.4433,0.273
ecg,51,0,8,203.425,453.29,130.3647,0.2625
ecg,51,0,9,203.235,453.475,141.0102,0.2702
ecg,51,0,10,203.01,453.62,153.432,0.2683
ecg,51,0,11,202.755,453.715,165.4673,0.2789
ecg,51,0,12,202.48,453.765,173.8847,0.2816
ecg,51,0,13,202.185,453.765,5.5274,0.3114
ecg,51,0,14,201.895,453.715,14.5327,0.2789
ecg,51,0,15,201.645,453.625,25.5605,0.2549
ecg,51,0,16,201.425,453.49,37.3037,0.264
ecg,51,0,17,201.235,453.31,49.6353,0.2625
ecg,51,0,18,201.085,453.09,61.5567,0.273
ecg,51,0,19,200.97,452.835,69.6789,0.2879
ecg,51,0,20,200.895,452.55,80.5367,0.3041
ecg,51,0,21,201.16,452.4,0.0,0.58
ecg,51,0,22,201.46,452.49,83.663,0.1811
ecg,51,0,23,201.5,452.66,69.4404,0.1709
ecg,51,0,24,201.575,452.815,59.0362,0.1749
ecg,51,0,25,201.675,452.95,47.4919,0.1628
ecg,51,0,26,201.79,453.065,42.5118,0.1628
ecg,51,0,27,201.925,453.16,28.067,0.17
ecg,51,0,28,202.08,453.225,17.3562,0.1676
ecg,51,0,29,202.25,453.26,6.3413,0.1811
ecg,51,0,30,202.425,453.26,173.2887,0.1712
ecg,51,0,31,202.595,453.225,163.6093,0.1772
ecg,51,0,32,202.755,453.155,149.0362,0.1749
ecg,51,0,33,202.9,453.055,141.8425,0.178
ecg,51,0,34,203.025,452.935,130.2388,0.1703
ecg,51,0,35,203.125,452.795,120.9655,0.1749
ecg,51,0,36,203.195,452.635,106.3859,0.1772
ecg,51,0,37,203.23,452.46,96.3418,0.1811
ecg,51,0,38,203.22,452.255,80.1363,0.2335
ecg,51,0,39,203.155,452.025,68.6265,0.247
ecg,51,0,40,203.045,451.81,56.9778,0.2385
ecg,51,0,41,202.905,451.615,51.7085,0.2421
ecg,51,0,42,201.82,450.265,51.1736,3.2219
ecg,51,0,43,202.28,449.01,0.0,2.94
ecg,51,0,44,203.75,449.265,90.0,0.51
ecg,51,0,45,202.84,449.52,0.0,1.82
ecg,52,0,0,205.915,448.935,2.7247,0.2102
ecg,52,0,1,206.115,448.965,14.7454,0.1965
ecg,52,0,2,206.3,449.03,23.962,0.197
ecg,52,0,3,206.47,449.12,32.0064,0.1887
ecg,52,0,4,206.625,449.23,38.6598,0.1921
ecg,52,0,5,206.76,449.365,51.3402,0.1921
ecg,52,0,6,206.88,449.52,53.1284,0.2
ecg,52,0,7,206.99,449.69,60.9487,0.2059
ecg,52,0,8,207.115,449.97,68.4573,0.4085
ecg,52,0,9,207.245,450.36,74.624,0.4149
ecg,52,0,10,207.32,450.665,79.217,0.2138
ecg,52,0,11,207.35,450.865,83.9898,0.1911
ecg,52,0,12,207.37,451.06,84.2881,0.201
ecg,52,0,13,207.38,451.25,90.0,0.18
ecg,52,0,14,207.38,451.435,90.0,0.19
ecg,52,0,15,207.37,451.625,96.0107,0.191
ecg,52,0,16,207.35,451.82,95.7115,0.201
ecg,52,0,17,207.32,452.02,101.3083,0.204
ecg,52,0,18,207.25,452.325,103.7076,0.422
ecg,52,0,19,207.12,452.725,112.3067,0.4215
ecg,52,0,20,206.99,453.01,119.0534,0.2059
ecg,52,0,21,206.885,453.18,124.5081,0.1942
ecg,52,0,22,206.765,453.335,130.9166,0.1985
ecg,52,0,23,206.625,453.47,141.3366,0.1921
ecg,52,0,24,206.47,453.585,145.4919,0.1942
ecg,52,0,25,206.3,453.675,158.7525,0.1931
ecg,52,0,26,206.115,453.735,165.2546,0.1965
ecg,52,0,27,205.915,453.77,174.5587,0.211
ecg,52,0,28,205.7,453.77,5.1955,0.2209
ecg,52,0,29,205.495,453.735,14.7442,0.1965
ecg,52,0,30,205.31,453.675,21.2491,0.1931
ecg,52,0,31,205.14,453.585,34.5081,0.1942
ecg,52,0,32,204.985,453.47,38.6634,0.1921
ecg,52,0,33,204.845,453.335,49.0834,0.1985
ecg,52,0,34,204.725,453.18,55.4919,0.1942
ecg,52,0,35,204.62,453.01,60.9429,0.2059
ecg,52,0,36,204.495,452.725,68.9632,0.4178
ecg,52,0,37,204.365,452.325,74.9817,0.4245
ecg,52,0,38,204.29,452.02,78.6917,0.204
ecg,52,0,39,204.26,451.82,84.2885,0.201
ecg,52,0,40,204.245,451.625,86.9841,0.1903
ecg,52,0,41,204.235,451.435,86.9889,0.1903
ecg,52,0,42,204.235,451.25,93.1779,0.1803
ecg,52,0,43,204.245,451.06,92.8652,0.2002
ecg,52,0,44,204.265,450.865,98.9722,0.1924
ecg,52,0,45,204.295,450.665,98.1301,0.2121
ecg,52,0,46,204.365,450.36,105.376,0.4149
ecg,52,0,47,204.495,449.97,111.5407,0.4085
ecg,52,0,48,204.62,449.69,119.055,0.2059
ecg,52,0,49,204.73,449.52,126.8681,0.2
ecg,52,0,50,204.855,449.365,130.9166,0.1985
ecg,52,0,51,204.99,449.23,139.3997,0.1844
ecg,52,0,52,205.14,449.12,147.9936,0.1887
ecg,52,0,53,205.31,449.03,156.0362,0.197
ecg,52,0,54,205.495,448.965,165.2558,0.1965
ecg,52,0,55,205.7,448.935,177.3989,0.2202
ecg,52,1,0,205.88,453.26,171.8743,0.1414
ecg,52,1,1,206.02,453.23,164.0513,0.1456
ecg,52,1,2,206.15,453.18,153.4349,0.1342
ecg,52,1,3,206.265,453.105,140.7119,0.1421
ecg,52,1,4,206.415,452.945,129.5587,0.2983
ecg,52,1,5,206.58,452.69,116.5651,0.313
ecg,52,1,6,206.7,452.395,107.8799,0.3257
ecg,52,1,7,206.785,452.08,102.338,0.3276
ecg,52,1,8,206.84,451.765,97.3536,0.3126
ecg,52,1,9,206.865,451.48,92.2014,0.2602
ecg,52,1,10,206.865,451.215,87.8801,0.2702
ecg,52,1,11,206.84,450.93,82.4034,0.3026
ecg,52,1,12,206.785,450.62,77.6625,0.3276
ecg,52,1,13,206.7,450.305,72.1201,0.3257
ecg,52,1,14,206.58,450.01,63.4349,0.313
ecg,52,1,15,206.415,449.76,49.1847,0.2907
ecg,52,1,16,206.265,449.605,39.2881,0.1421
ecg,52,1,17,206.15,449.525,30.2601,0.1389
ecg,52,1,18,206.02,449.47,15.9429,0.1456
ecg,52,1,19,205.88,449.445,4.0896,0.1404
ecg,52,1,20,205.735,449.445,176.1821,0.1503
ecg,52,1,21,205.59,449.47,164.0571,0.1456
ecg,52,1,22,205.46,449.525,149.7431,0.1389
ecg,52,1,23,205.345,449.605,140.7119,0.1421
ecg,52,1,24,205.195,449.76,130.8153,0.2907
ecg,52,1,25,205.03,450.01,116.5651,0.313
ecg,52,1,26,204.91,450.305,107.8773,0.3257
ecg,52,1,27,204.825,450.62,102.3401,0.3276
ecg,52,1,28,204.77,450.93,97.5937,0.3026
ecg,52,1,29,204.745,451.215,92.1231,0.2702
ecg,52,1,30,204.745,451.48,87.7952,0.2602
ecg,52,1,31,204.77,451.765,82.6491,0.3126
ecg,52,1,32,204.825,452.08,77.6594,0.3276
ecg,52,1,33,204.91,452.395,72.1227,0.3257
ecg,52,1,34,205.03,452.69,63.4349,0.313
ecg,52,1,35,205.195,452.945,50.4413,0.2983
ecg,52,1,36,205.345,453.105,39.2881,0.1421
ecg,52,1,37,205.46,453.18,26.5621,0.1342
ecg,52,1,38,205.59,453.23,15.9487,0.1456
ecg,52,1,39,205.735,453.26,7.5908,0.1513
ecg,53,0,0,209.77,450.47,51.7097,2.4207
ecg,53,0,1,210.585,451.53,59.42,0.2555
ecg,53,0,2,210.7,451.76,67.3825,0.26
ecg,53,0,3,210.785,452.005,74.3562,0.2596
ecg,53,0,4,210.83,452.26,85.6003,0.2608
ecg,53,0,5,210.825,452.54,95.7132,0.3015
ecg,53,0,6,210.77,452.82,107.1004,0.272
ecg,53,0,7,210.665,453.07,118.4433,0.273
ecg,53,0,8,210.51,453.29,131.9889,0.2691
ecg,53,0,9,210.315,453.475,141.0082,0.2702
ecg,53,0,10,210.09,453.62,153.4335,0.2683
ecg,53,0,11,209.84,453.715,164.9328,0.2693
ecg,53,0,12,209.565,453.765,174.0943,0.2916
ecg,53,0,13,209.27,453.765,5.7106,0.3015
ecg,53,0,14,208.985,453.715,14.5327,0.2789
ecg,53,0,15,208.73,453.625,24.6232,0.264
ecg,53,0,16,208.51,453.49,38.6609,0.2561
ecg,53,0,17,208.325,453.31,49.6353,0.2625
ecg,53,0,18,208.175,453.09,61.5567,0.273
ecg,53,0,19,208.06,452.835,69.6789,0.2879
ecg,53,0,20,207.985,452.55,80.5367,0.3041
ecg,53,0,21,208.245,452.4,0.0,0.57
ecg,53,0,22,208.545,452.49,80.5377,0.1825
ecg,53,0,23,208.59,452.66,69.4404,0.1709
ecg,53,0,24,208.66,452.815,61.9305,0.17
ecg,53,0,25,208.755,452.95,47.4919,0.1628
ecg,53,0,26,208.875,453.065,40.2355,0.1703
ecg,53,0,27,209.015,453.16,28.067,0.17
ecg,53,0,28,209.17,453.225,17.3562,0.1676
ecg,53,0,29,209.335,453.26,6.7113,0.1712
ecg,53,0,30,209.51,453.26,173.6587,0.1811
ecg,53,0,31,209.68,453.225,162.6454,0.1676
ecg,53,0,32,209.84,453.155,150.6415,0.1836
ecg,53,0,33,209.985,453.055,139.7645,0.1703
ecg,53,0,34,210.11,452.935,132.7105,0.1769
ecg,53,0,35,210.21,452.795,118.0716,0.17
ecg,53,0,36,210.28,452.635,109.4395,0.1803
ecg,53,0,37,210.32,452.46,96.3418,0.1811
ecg,53,0,38,210.31,452.255,80.1363,0.2335
ecg,53,0,39,210.24,452.025,66.4998,0.2508
ecg,53,0,40,210.125,451.81,56.9747,0.2385
ecg,53,0,41,209.99,451.615,53.6161,0.236
ecg,53,0,42,208.905,450.265,51.0352,3.2282
ecg,53,0,43,209.365,449.01,0.0,2.95
ecg,53,0,44,210.84,449.265,90.0,0.51
ecg,53,0,45,209.93,449.52,0.0,1.82
ecg,54,0,0,214.32,453.355,90.0,0.51
ecg,54,0,1,213.41,453.61,0.0,1.82
ecg,54,0,2,212.145,452.425,73.3231,2.4741
ecg,54,0,3,211.845,451.24,0.0,0.11
ecg,54,0,4,211.99,451.325,43.3643,0.2476
ecg,54,0,5,212.185,451.475,31.7596,0.247
ecg,54,0,6,212.405,451.58,19.1797,0.2435
ecg,54,0,7,212.645,451.635,6.8425,0.2518
ecg,54,0,8,212.88,451.64,174.8045,0.2209
ecg,54,0,9,213.09,451.595,160.7117,0.2119
ecg,54,0,10,213.285,451.51,152.2403,0.2147
ecg,54,0,11,213.46,451.395,140.9057,0.2062
ecg,54,0,12,213.61,451.25,131.1879,0.2126
ecg,54,0,13,213.73,451.075,117.7597,0.2147
ecg,54,0,14,213.815,450.88,109.2869,0.2119
ecg,54,0,15,213.86,450.67,95.1959,0.2209
ecg,54,0,16,213.86,450.45,84.8045,0.2209
ecg,54,0,17,213.815,450.235,71.5675,0.2214
ecg,54,0,18,213.73,450.035,62.2403,0.2147
ecg,54,0,19,213.615,449.855,52.5933,0.214
ecg,54,0,20,213.465,449.7,39.4726,0.2202
ecg,54,0,21,213.285,449.58,27.7597,0.2147
ecg,54,0,22,213.085,449.495,18.4337,0.2213
ecg,54,0,23,212.87,449.45,5.1955,0.2209
ecg,54,0,24,212.68,449.445,176.4203,0.1603
ecg,54,0,25,212.52,449.47,165.9663,0.1649
ecg,54,0,26,212.365,449.52,158.1986,0.1615
ecg,54,0,27,212.215,449.59,151.926,0.17
ecg,54,0,28,212.075,449.68,142.4308,0.164
ecg,54,0,29,211.95,449.79,135.0,0.1697
ecg,54,0,30,211.845,449.915,124.6976,0.1581
ecg,54,0,31,211.765,450.05,116.5626,0.1565
ecg,54,0,32,211.515,449.92,42.9301,0.5873
ecg,54,0,33,211.36,449.63,123.6934,0.2163
ecg,54,0,34,211.49,449.46,131.1852,0.2126
ecg,54,0,35,211.64,449.315,140.9031,0.2061
ecg,54,0,36,211.81,449.19,146.3122,0.2163
ecg,54,0,37,211.995,449.09,157.1661,0.2062
ecg,54,0,38,212.19,449.015,160.7117,0.2119
ecg,54,0,39,212.395,448.96,169.213,0.2138
ecg,54,0,40,212.605,448.935,177.2753,0.2102
ecg,54,0,41,212.8,448.93,0.0,0.18
ecg,54,0,42,212.975,448.945,10.0077,0.1726
ecg,54,0,43,213.14,448.975,10.62,0.1628
ecg,54,0,44,213.295,449.015,18.4349,0.1581
ecg,54,0,45,213.515,449.11,25.7697,0.322
ecg,54,0,46,213.78,449.275,38.3672,0.3061
ecg,54,0,47,214.0,449.49,50.1937,0.3124
ecg,54,0,48,214.175,449.745,60.9468,0.3089
ecg,54,0,49,214.28,449.96,69.4404,0.1709
ecg,54,0,50,214.33,450.12,75.9663,0.1649
ecg,54,0,51,214.36,450.285,83.2887,0.1712
ecg,54,0,52,214.375,450.455,86.6353,0.1703
ecg,54,0,53,214.37,450.7,93.5772,0.3206
ecg,54,0,54,214.32,451.005,105.4193,0.3008
ecg,54,0,55,214.22,451.29,113.2005,0.3046
ecg,54,0,56,214.08,451.55,123.6901,0.2885
ecg,54,0,57,213.895,451.77,136.3965,0.29
ecg,54,0,58,213.665,451.95,147.3826,0.2968
ecg,54,0,59,213.475,452.055,158.962,0.1393
ecg,54,0,60,213.335,452.105,161.5633,0.1581
ecg,54,0,61,213.18,452.14,172.8736,0.1612
ecg,54,0,62,213.02,452.155,176.4257,0.1603
ecg,54,0,63,212.775,452.15,3.4689,0.3306
ecg,54,0,64,212.755,452.62,73.191,1.0029
ecg,54,0,65,213.61,453.1,0.0,1.42
ecg,55,0,0,264.515,256.12,112.5155,2.5331
ecg,55,0,1,262.855,257.775,157.5709,2.5423
ecg,55,0,2,260.51,257.775,22.5155,2.5331
ecg,55,0,3,258.855,256.12,67.4845,2.5331
ecg,55,0,4,258.855,253.775,112.4291,2.5423
ecg,55,0,5,260.51,252.115,157.4845,2.5331
ecg,55,0,6,262.855,252.115,22.4291,2.5423
ecg,55,0,7,264.515,253.775,67.5709,2.5423
ecg,56,0,0,180.075,206.2,112.5155,2.5331
ecg,56,0,1,178.42,207.855,157.4845,2.5331
ecg,56,0,2,176.075,207.855,22.4291,2.5423
ecg,56,0,3,174.415,206.2,67.4845,2.5331
ecg,56,0,4,174.415,203.855,112.4291,2.5423
ecg,56,0,5,176.075,202.195,157.5709,2.5423
ecg,56,0,6,178.42,202.195,22.5155,2.5331
ecg,56,0,7,180.075,203.855,67.5709,2.5423
ecg,57,0,0,145.685,331.71,112.5155,2.5331
ecg,57,0,1,144.03,333.365,157.4845,2.5331
ecg,57,0,2,141.685,333.365,22.4291,2.5423
ecg,57,0,3,140.025,331.71,67.4845,2.5331
ecg,57,0,4,140.025,329.365,112.4291,2.5423
ecg,57,0,5,141.685,327.705,157.5709,2.5423
ecg,57,0,6,144.03,327.705,22.5155,2.5331
ecg,57,0,7,145.685,329.365,67.5709,2.5423
ecg,58,0,0,259.775,278.89,112.5155,2.5331
ecg,58,0,1,258.12,280.545,157.4845,2.5331
ecg,58,0,2,255.775,280.545,22.4291,2.5423
ecg,58,0,3,254.115,278.89,67.4845,2.5331
ecg,58,0,4,254.115,276.545,112.4291,2.5423
ecg,58,0,5,255.775,274.885,157.5709,2.5423
ecg,58,0,6,258.12,274.885,22.5155,2.5331
ecg,58,0,7,259.775,276.545,67.5709,2.5423
ecg,59,0,0,193.27,494.41,90.0,69.9
ecg,60,0,0,183.22,492.21,107.0597,68.5147
ecg,61,0,0,174.575,520.385,107.0719,9.5718
ecg,61,0,1,175.69,515.955,153.4349,0.6485
ecg,61,0,2,175.145,516.17,164.6498,0.5289
ecg,61,0,3,174.64,516.24,0.0,0.5
ecg,61,0,4,174.28,516.205,17.65,0.2309
ecg,61,0,5,173.955,516.065,26.0299,0.4785
ecg,61,0,6,173.775,517.075,88.2023,2.2311
ecg,61,0,7,173.775,519.305,91.7977,2.2311
ecg,61,0,8,173.635,521.215,97.524,1.6038
ecg,62,0,0,192.045,521.685,132.5396,3.6237
ecg,62,0,1,191.54,524.75,67.4036,3.7477
ecg,62,0,2,192.765,528.75,77.4579,4.651
ecg,62,0,3,193.74,528.75,101.6977,4.6363
ecg,62,0,4,194.965,524.75,113.5772,3.7751
ecg,63,0,0,261.16,255.76,90.0,1.16
ecg,63,0,1,260.975,256.34,0.0,0.37
ecg,63,0,2,260.79,254.925,90.0,2.83
ecg,63,0,3,260.975,253.51,0.0,0.37
ecg,63,0,4,261.16,254.19,90.0,1.36
ecg,63,0,5,261.815,254.87,0.0,1.31
ecg,63,0,6,262.47,254.19,90.0,1.36
ecg,63,0,7,262.655,253.51,0.0,0.37
ecg,63,0,8,262.84,254.925,90.0,2.83
ecg,63,0,9,262.655,256.34,0.0,0.37
ecg,63,0,10,262.47,255.76,90.0,1.16
ecg,63,0,11,261.815,255.18,0.0,1.31
ecg,64,0,0,176.72,205.835,90.0,1.15
ecg,64,0,1,176.54,206.41,0.0,0.36
ecg,64,0,2,176.36,204.995,90.0,2.83
ecg,64,0,3,176.54,203.58,0.0,0.36
ecg,64,0,4,176.72,204.265,90.0,1.37
ecg,64,0,5,177.375,204.95,0.0,1.31
ecg,64,0,6,178.03,204.265,90.0,1.37
ecg,64,0,7,178.215,203.58,0.0,0.37
ecg,64,0,8,178.4,204.995,90.0,2.83
ecg,64,0,9,178.215,206.41,0.0,0.37
ecg,64,0,10,178.03,205.835,90.0,1.15
ecg,64,0,11,177.375,205.26,0.0,1.31
ecg,65,0,0,142.33,331.345,90.0,1.15
ecg,65,0,1,142.15,331.92,0.0,0.36
ecg,65,0,2,141.97,330.505,90.0,2.83
ecg,65,0,3,142.15,329.09,0.0,0.36
ecg,65,0,4,142.33,329.775,90.0,1.37
ecg,65,0,5,142.985,330.46,0.0,1.31
ecg,65,0,6,143.64,329.775,90.0,1.37
ecg,65,0,7,143.825,329.09,0.0,0.37
ecg,65,0,8,144.01,330.505,90.0,2.83
ecg,65,0,9,143.825,331.92,0.0,0.37
ecg,65,0,10,143.64,331.345,90.0,1.15
ecg,65,0,11,142.985,330.77,0.0,1.31
ecg,66,0,0,256.42,278.53,90.0,1.16
ecg,66,0,1,256.235,279.11,0.0,0.37
ecg,66,0,2,256.05,277.695,90.0,2.83
ecg,66,0,3,256.235,276.28,0.0,0.37
ecg,66,0,4,256.42,276.96,90.0,1.36
ecg,66,0,5,257.075,277.64,0.0,1.31
ecg,66,0,6,257.73,276.96,90.0,1.36
ecg,66,0,7,257.915,276.28,0.0,0.37
ecg,66,0,8,258.1,277.695,90.0,2.83
ecg,66,0,9,257.915,279.11,0.0,0.37
ecg,66,0,10,257.73,278.53,90.0,1.16
ecg,66,0,11,257.075,277.95,0.0,1.31
ecg,67,0,0,178.3,504.105,106.5872,0.4904
ecg,67,0,1,176.68,503.055,39.6598,4.0268
ecg,67,0,2,177.13,501.58,174.5731,4.018
ecg,67,0,3,179.06,501.625,106.5872,0.4904
ecg,67,0,4,177.59,501.98,175.1008,2.8103
ecg,67,0,5,177.28,502.985,39.0741,2.8081
ecg,68,0,0,176.97,497.94,40.9721,1.0066
ecg,68,0,1,176.66,497.385,107.2815,0.4713
ecg,68,0,2,178.26,498.52,41.6336,4.0941
ecg,68,0,3,177.76,500.145,172.5626,4.0944
ecg,68,0,4,175.8,500.185,107.2815,0.4713
ecg,68,0,5,176.37,499.9,173.1571,1.0072
ecg,68,0,6,177.11,499.055,107.0,1.6417
ecg,68,1,0,177.485,499.17,106.8719,1.2749
ecg,68,1,1,178.08,499.685,173.0558,1.5715
ecg,68,1,2,178.265,499.075,40.878,1.5738
ecg,69,0,0,178.675,496.17,119.3562,0.1836
ecg,69,0,1,178.78,496.02,130.6039,0.1844
ecg,69,0,2,178.91,495.895,141.8425,0.178
ecg,69,0,3,179.055,495.8,151.9283,0.17
ecg,69,0,4,179.215,495.735,163.6093,0.1772
ecg,69,0,5,179.385,495.7,173.2912,0.1712
ecg,69,0,6,179.56,495.695,3.1779,0.1803
ecg,69,0,7,179.74,495.72,12.5296,0.1844
ecg,69,0,8,179.94,495.79,24.4435,0.2417
ecg,69,0,9,180.145,495.915,38.2901,0.2421
ecg,69,0,10,180.315,496.085,51.7113,0.2421
ecg,69,0,11,180.44,496.295,66.5005,0.2508
ecg,69,0,12,180.5,496.53,85.2353,0.2408
ecg,69,0,13,180.5,496.775,94.5749,0.2508
ecg,69,0,14,180.46,497.02,104.0358,0.2474
ecg,69,0,15,180.395,497.26,106.262,0.25
ecg,69,0,16,180.28,497.645,106.797,0.5536
ecg,69,0,17,178.51,497.39,17.1027,3.5364
ecg,69,0,18,176.885,496.65,106.4605,0.4588
ecg,69,0,19,177.67,496.65,16.9911,1.5057
ecg,69,0,20,178.42,496.78,108.4386,0.1897
ecg,69,0,21,177.885,495.96,52.261,1.8462
ecg,69,0,22,177.395,494.98,106.6986,0.522
ecg,69,0,23,178.05,495.49,52.6505,1.9121
ecg,69,1,0,179.975,497.295,105.2544,0.114
ecg,69,1,1,180.015,497.155,106.3907,0.1772
ecg,69,1,2,180.055,496.985,100.0077,0.1726
ecg,69,1,3,180.08,496.815,96.7113,0.1712
ecg,69,1,4,180.09,496.65,90.0,0.16
ecg,69,1,5,180.07,496.495,75.0657,0.1552
ecg,69,1,6,180.015,496.355,61.7015,0.1476
ecg,69,1,7,179.92,496.235,42.5081,0.1628
ecg,69,1,8,179.78,496.145,23.6308,0.1746
ecg,69,1,9,179.605,496.095,8.9722,0.1924
ecg,69,1,10,179.435,496.085,176.1882,0.1503
ecg,69,1,11,179.29,496.125,153.4325,0.1565
ecg,69,1,12,179.165,496.205,140.7119,0.1421
ecg,69,1,13,179.06,496.315,127.5666,0.164
ecg,69,1,14,178.97,496.45,119.7456,0.1612
ecg,69,1,15,178.9,496.6,110.5548,0.1709
ecg,69,1,16,178.84,496.765,109.4441,0.1803
ecg,69,1,17,178.79,496.92,105.9429,0.1456
ecg,69,1,18,179.365,497.17,16.8317,1.2433
ecg,70,0,0,180.12,491.46,17.049,3.1379
ecg,70,0,1,178.675,490.815,106.557,0.386
ecg,70,0,2,180.42,491.145,16.9477,3.5335
ecg,70,0,3,182.0,492.03,106.557,0.772
ecg,70,0,4,181.665,492.46,165.0691,0.4657
ecg,70,0,5,181.53,492.22,106.6986,0.6264
ecg,71,0,0,179.43,488.145,111.8004,0.1616
ecg,71,0,1,179.5,488.005,121.6086,0.1526
ecg,71,0,2,179.59,487.88,129.8066,0.1562
ecg,71,0,3,179.695,487.775,140.7119,0.1421
ecg,71,0,4,179.815,487.69,148.3899,0.1526
ecg,71,0,5,179.945,487.62,155.2266,0.1432
ecg,71,0,6,180.085,487.565,161.5633,0.1581
ecg,71,0,7,180.235,487.525,168.6912,0.153
ecg,71,0,8,180.465,487.495,174.4726,0.3114
ecg,71,0,9,180.78,487.485,1.789,0.3201
ecg,71,0,10,181.02,487.5,7.1264,0.1612
ecg,71,0,11,181.175,487.525,11.3088,0.153
ecg,71,0,12,181.325,487.555,11.3099,0.153
ecg,71,0,13,181.465,487.59,17.1025,0.136
ecg,71,0,14,181.6,487.63,15.9458,0.1456
ecg,71,0,15,181.74,487.68,23.1978,0.1523
ecg,71,0,16,181.88,487.74,23.2005,0.1523
ecg,71,0,17,182.02,487.805,26.5651,0.1565
ecg,71,0,18,182.23,487.925,31.2636,0.3276
ecg,71,0,19,182.495,488.115,40.0301,0.3265
ecg,71,0,20,182.675,488.275,45.0,0.1556
ecg,71,0,21,182.775,488.39,53.1319,0.15
ecg,71,0,22,182.86,488.515,58.3914,0.1526
ecg,71,0,23,182.93,488.645,65.2253,0.1432
ecg,71,0,24,182.98,488.78,74.0513,0.1456
ecg,71,0,25,183.01,488.925,82.4096,0.1513
ecg,71,0,26,183.015,489.08,93.5743,0.1603
ecg,71,0,27,182.99,489.24,104.0343,0.1649
ecg,71,0,28,182.94,489.395,111.8054,0.1616
ecg,71,0,29,182.87,489.535,121.6086,0.1526
ecg,71,0,30,182.78,489.66,129.8023,0.1562
ecg,71,0,31,182.675,489.765,140.7119,0.1421
ecg,71,0,32,182.56,489.85,146.3083,0.1442
ecg,71,0,33,182.43,489.92,156.7995,0.1523
ecg,71,0,34,182.285,489.975,161.5677,0.1581
ecg,71,0,35,182.135,490.015,168.6901,0.153
ecg,71,0,36,181.9,490.045,174.6445,0.3214
ecg,71,0,37,181.58,490.05,3.5758,0.3206
ecg,71,0,38,181.34,490.03,7.1237,0.1612
ecg,71,0,39,181.185,490.01,7.5966,0.1513
ecg,71,0,40,181.035,489.98,14.9309,0.1553
ecg,71,0,41,180.89,489.94,15.9458,0.1456
ecg,71,0,42,180.755,489.9,17.0994,0.136
ecg,71,0,43,180.62,489.855,19.655,0.1487
ecg,71,0,44,180.48,489.795,26.5651,0.1565
ecg,71,0,45,180.34,489.725,26.5651,0.1565
ecg,71,0,46,180.135,489.605,32.1965,0.3191
ecg,71,0,47,179.875,489.42,38.6604,0.3202
ecg,71,0,48,179.695,489.265,45.0,0.1556
ecg,71,0,49,179.595,489.15,53.1254,0.15
ecg,71,0,50,179.51,489.025,58.3978,0.1526
ecg,71,0,51,179.44,488.89,66.7969,0.1523
ecg,71,0,52,179.395,488.75,77.9057,0.1432
ecg,71,0,53,179.37,488.61,81.8743,0.1414
ecg,71,0,54,179.365,488.46,93.5745,0.1603
ecg,71,0,55,179.385,488.3,100.619,0.1628
ecg,71,1,0,182.61,489.145,100.3069,0.1118
ecg,71,1,1,182.62,489.035,90.0,0.11
ecg,71,1,2,182.61,488.925,79.6931,0.1118
ecg,71,1,3,182.58,488.82,68.2016,0.1077
ecg,71,1,4,182.495,488.68,54.1614,0.222
ecg,71,1,5,182.345,488.505,45.0013,0.2404
ecg,71,1,6,182.155,488.345,35.5357,0.2581
ecg,71,1,7,181.94,488.21,28.6109,0.2506
ecg,71,1,8,181.725,488.1,25.4639,0.2326
ecg,71,1,9,181.52,488.02,16.7008,0.2088
ecg,71,1,10,181.325,487.96,17.5247,0.1993
ecg,71,1,11,181.11,487.91,9.4623,0.2433
ecg,71,1,12,180.87,487.88,4.763,0.2408
ecg,71,1,13,180.62,487.875,177.797,0.2602
ecg,71,1,14,180.375,487.9,170.1356,0.2334
ecg,71,1,15,180.155,487.96,159.1457,0.2247
ecg,71,1,16,180.005,488.035,142.124,0.114
ecg,71,1,17,179.92,488.105,138.8148,0.1063
ecg,71,1,18,179.85,488.185,123.6878,0.1082
ecg,71,1,19,179.8,488.285,109.9799,0.117
ecg,71,1,20,179.77,488.395,100.3069,0.1118
ecg,71,1,21,179.76,488.505,90.0,0.11
ecg,71,1,22,179.77,488.61,78.6884,0.102
ecg,71,1,23,179.8,488.71,68.2016,0.1077
ecg,71,1,24,179.88,488.855,57.7257,0.2247
ecg,71,1,25,180.025,489.035,44.9974,0.2404
ecg,71,1,26,180.215,489.19,33.691,0.2524
ecg,71,1,27,180.43,489.325,30.5786,0.2555
ecg,71,1,28,180.645,489.435,23.1988,0.2285
ecg,71,1,29,180.845,489.515,20.226,0.2025
ecg,71,1,30,181.04,489.575,14.0342,0.2062
ecg,71,1,31,181.255,489.62,9.8662,0.2334
ecg,71,1,32,181.495,489.65,4.5749,0.2508
ecg,71,1,33,181.75,489.66,0.0,0.26
ecg,71,1,34,181.995,489.64,170.1344,0.2335
ecg,71,1,35,182.22,489.575,157.7488,0.2377
ecg,71,1,36,182.37,489.5,143.1319,0.1
ecg,71,1,37,182.45,489.435,138.8148,0.1063
ecg,71,1,38,182.52,489.355,123.6878,0.1082
ecg,71,1,39,182.575,489.255,114.4466,0.1208
ecg,72,0,0,180.475,486.475,119.0571,0.103
ecg,72,0,1,180.41,486.55,143.1284,0.1
ecg,72,0,2,180.325,486.595,161.5651,0.0949
ecg,72,0,3,180.23,486.605,5.7115,0.1005
ecg,72,0,4,180.13,486.575,26.5651,0.1118
ecg,72,0,5,180.05,486.51,53.1319,0.1
ecg,72,0,6,180.005,486.425,71.5665,0.0949
ecg,72,0,7,179.995,486.325,95.1916,0.1105
ecg,72,0,8,180.025,486.225,119.0571,0.103
ecg,72,0,9,180.09,486.15,143.1319,0.1
ecg,72,0,10,180.18,486.105,163.3,0.1044
ecg,72,0,11,180.28,486.095,5.7071,0.1005
ecg,72,0,12,180.375,486.125,29.0571,0.103
ecg,72,0,13,180.45,486.19,53.1319,0.1
ecg,72,0,14,180.495,486.275,71.5651,0.0949
ecg,72,0,15,180.505,486.375,95.1916,0.1105
ecg,73,0,0,181.18,485.61,19.9834,0.2341
ecg,73,0,1,180.985,485.51,35.2168,0.2081
ecg,73,0,2,180.825,485.375,45.0015,0.2121
ecg,73,0,3,180.7,485.215,59.5327,0.1972
ecg,73,0,4,180.615,485.035,69.7734,0.2025
ecg,73,0,5,180.565,484.84,81.4698,0.2022
ecg,73,0,6,180.555,484.635,92.729,0.2102
ecg,73,0,7,180.58,484.42,100.3034,0.2236
ecg,73,0,8,180.645,484.21,114.2264,0.2193
ecg,73,0,9,180.745,484.02,121.4297,0.211
ecg,73,0,10,180.87,483.855,133.0247,0.2052
ecg,73,0,11,181.02,483.72,143.1319,0.2
ecg,73,0,12,181.19,483.62,156.038,0.197
ecg,73,0,13,181.38,483.56,168.6896,0.204
ecg,73,0,14,181.59,483.54,0.0,0.22
ecg,73,0,15,181.81,483.565,12.805,0.2256
ecg,73,0,16,181.985,483.615,21.0373,0.1393
ecg,73,0,17,182.11,483.67,26.5651,0.1342
ecg,73,0,18,182.225,483.74,36.0252,0.136
ecg,73,0,19,182.325,483.825,45.0024,0.1273
ecg,73,0,20,182.41,483.92,51.3391,0.1281
ecg,73,0,21,182.48,484.025,61.3907,0.1253
ecg,73,0,22,182.535,484.145,68.9609,0.1393
ecg,73,0,23,182.57,484.275,81.2589,0.1315
ecg,73,0,24,182.68,484.27,145.0097,0.2441
ecg,73,0,25,182.89,484.155,157.7502,0.2377
ecg,73,0,26,183.06,484.105,175.2352,0.1204
ecg,73,0,27,183.18,484.095,175.2388,0.1204
ecg,73,0,28,183.305,484.1,8.7444,0.1315
ecg,73,0,29,183.43,484.125,14.0362,0.1237
ecg,73,0,30,183.59,484.18,21.8022,0.2154
ecg,73,0,31,183.775,484.275,32.9033,0.2025
ecg,73,0,32,183.93,484.4,45.0,0.198
ecg,73,0,33,184.055,484.55,55.4919,0.1942
ecg,73,0,34,184.145,484.72,68.7517,0.1931
ecg,73,0,35,184.2,484.905,78.113,0.1942
ecg,73,0,36,184.215,485.1,92.8608,0.2003
ecg,73,0,37,184.19,485.305,100.7826,0.2138
ecg,73,0,38,184.13,485.51,111.8022,0.2154
ecg,73,0,39,184.035,485.69,124.5081,0.1942
ecg,73,0,40,183.91,485.84,135.0,0.198
ecg,73,0,41,183.76,485.965,145.4919,0.1942
ecg,73,0,42,183.595,486.055,157.6197,0.1838
ecg,73,0,43,183.41,486.11,168.6896,0.204
ecg,73,0,44,183.21,486.125,2.8631,0.2002
ecg,73,0,45,183.005,486.1,10.7842,0.2138
ecg,73,0,46,182.84,486.055,22.6219,0.13
ecg,73,0,47,182.72,486.005,22.6162,0.13
ecg,73,0,48,182.61,485.945,34.9944,0.1221
ecg,73,0,49,182.52,485.87,45.0,0.1131
ecg,73,0,50,182.41,485.735,53.6161,0.236
ecg,73,0,51,182.295,485.525,68.6298,0.247
ecg,73,0,52,182.205,485.46,131.9913,0.1345
ecg,73,0,53,182.105,485.545,147.5291,0.1304
ecg,73,0,54,181.995,485.61,151.3907,0.1253
ecg,73,0,55,181.88,485.66,161.564,0.1265
ecg,73,0,56,181.755,485.69,171.2523,0.1315
ecg,73,0,57,181.625,485.7,0.0,0.13
ecg,73,0,58,181.49,485.695,4.0865,0.1404
ecg,73,0,59,181.355,485.67,17.1025,0.136
ecg,73,1,0,183.81,485.23,99.4641,0.1217
ecg,73,1,1,183.82,485.11,90.0,0.12
ecg,73,1,2,183.805,484.995,74.7456,0.114
ecg,73,1,3,183.77,484.88,71.5683,0.1265
ecg,73,1,4,183.715,484.77,55.0048,0.1221
ecg,73,1,5,183.64,484.68,45.0,0.1131
ecg,73,1,6,183.55,484.6,38.6603,0.1281
ecg,73,1,7,183.44,484.535,22.6193,0.13
ecg,73,1,8,183.325,484.505,5.1955,0.1105
ecg,73,1,9,183.21,484.5,0.0,0.12
ecg,73,1,10,183.095,484.515,164.7456,0.114
ecg,73,1,11,182.98,484.555,157.3781,0.13
ecg,73,1,12,182.87,484.615,145.0097,0.1221
ecg,73,1,13,182.775,484.69,138.3647,0.1204
ecg,73,1,14,182.69,484.775,131.6353,0.1204
ecg,73,1,15,182.63,484.875,109.9799,0.117
ecg,73,1,16,182.6,484.985,100.3069,0.1118
ecg,73,1,17,182.59,485.1,90.0,0.12
ecg,73,1,18,182.605,485.22,75.9638,0.1237
ecg,73,1,19,182.645,485.335,65.5548,0.1208
ecg,73,1,20,182.705,485.445,57.5319,0.1304
ecg,73,1,21,182.78,485.545,48.3671,0.1204
ecg,73,1,22,182.865,485.625,37.876,0.114
ecg,73,1,23,182.96,485.68,21.8007,0.1077
ecg,73,1,24,183.075,485.715,12.9936,0.1334
ecg,73,1,25,183.2,485.73,0.0,0.12
ecg,73,1,26,183.32,485.715,165.9638,0.1237
ecg,73,1,27,183.435,485.68,160.0166,0.117
ecg,73,1,28,183.54,485.625,145.0097,0.1221
ecg,73,1,29,183.635,485.55,138.3647,0.1204
ecg,73,1,30,183.715,485.46,124.9952,0.1221
ecg,73,1,31,183.775,485.35,112.6144,0.13
ecg,73,2,0,182.245,484.745,102.9936,0.1334
ecg,73,2,1,182.26,484.615,90.0,0.13
ecg,73,2,2,182.25,484.485,81.2523,0.1315
ecg,73,2,3,182.215,484.36,67.3781,0.13
ecg,73,2,4,182.155,484.245,57.5319,0.1304
ecg,73,2,5,182.08,484.14,51.3391,0.1281
ecg,73,2,6,181.985,484.055,32.4709,0.1304
ecg,73,2,7,181.87,483.99,26.568,0.1342
ecg,73,2,8,181.745,483.95,8.7444,0.1315
ecg,73,2,9,181.615,483.945,175.6005,0.1304
ecg,73,2,10,181.485,483.965,167.0049,0.1334
ecg,73,2,11,181.365,484.005,155.5581,0.1208
ecg,73,2,12,181.255,484.07,143.9722,0.136
ecg,73,2,13,181.15,484.155,138.0133,0.1345
ecg,73,2,14,181.065,484.255,122.4681,0.1304
ecg,73,2,15,181.005,484.37,112.6219,0.13
ecg,73,2,16,180.965,484.495,102.9936,0.1334
ecg,73,2,17,180.95,484.625,90.0,0.13
ecg,73,2,18,180.965,484.755,77.0056,0.1334
ecg,73,2,19,181.005,484.88,67.3794,0.13
ecg,73,2,20,181.06,484.995,61.3907,0.1253
ecg,73,2,21,181.135,485.1,48.0135,0.1345
ecg,73,2,22,181.23,485.19,38.6587,0.1281
ecg,73,2,23,181.34,485.255,22.6188,0.13
ecg,73,2,24,181.47,485.29,8.1319,0.1414
ecg,73,2,25,181.605,485.3,0.0,0.13
ecg,73,2,26,181.73,485.285,165.9638,0.1237
ecg,73,2,27,181.85,485.24,153.432,0.1342
ecg,73,2,28,181.965,485.175,147.5291,0.1304
ecg,73,2,29,182.065,485.095,135.0049,0.1273
ecg,73,2,30,182.145,484.995,122.4681,0.1304
ecg,73,2,31,182.205,484.875,111.0391,0.1393
ecg,74,0,0,184.675,483.235,117.3489,0.3265
ecg,74,0,1,184.485,483.475,140.4413,0.2983
ecg,74,0,2,184.225,483.61,164.5786,0.3008
ecg,74,0,3,183.915,483.63,6.9113,0.3324
ecg,74,0,4,183.605,483.535,27.3495,0.3265
ecg,74,0,5,183.365,483.345,50.4404,0.2983
ecg,74,0,6,183.23,483.09,74.0542,0.2912
ecg,74,0,7,183.21,482.785,96.91,0.3324
ecg,74,0,8,183.305,482.475,117.3512,0.3265
ecg,74,0,9,183.495,482.23,138.9908,0.3048
ecg,74,0,10,183.755,482.09,164.5772,0.3008
ecg,74,0,11,184.06,482.07,7.125,0.3225
ecg,74,0,12,184.365,482.165,27.3507,0.3265
ecg,74,0,13,184.61,482.355,48.9887,0.3048
ecg,74,0,14,184.75,482.615,74.5804,0.3008
ecg,74,0,15,184.77,482.925,96.91,0.3324
ecg,74,1,0,183.57,482.81,97.1264,0.1612
ecg,74,1,1,183.585,482.97,72.6446,0.1676
ecg,74,1,2,183.66,483.115,52.4291,0.164
ecg,74,1,3,183.785,483.22,28.074,0.17
ecg,74,1,4,183.945,483.27,6.7113,0.1712
ecg,74,1,5,184.11,483.255,162.6454,0.1676
ecg,74,1,6,184.255,483.18,142.4329,0.164
ecg,74,1,7,184.36,483.055,118.0683,0.17
ecg,74,1,8,184.41,482.895,96.7113,0.1712
ecg,74,1,9,184.395,482.73,72.6454,0.1676
ecg,74,1,10,184.315,482.585,49.7629,0.1703
ecg,74,1,11,184.185,482.48,28.074,0.17
ecg,74,1,12,184.025,482.43,6.7088,0.1712
ecg,74,1,13,183.865,482.445,161.5677,0.1581
ecg,74,1,14,183.725,482.525,139.7612,0.1703
ecg,74,1,15,183.62,482.655,118.0728,0.17
ecg,75,0,0,185.89,479.35,106.9275,0.4808
ecg,75,0,1,184.285,478.335,39.0446,3.9529
ecg,75,0,2,184.145,476.99,175.8997,2.7972
ecg,75,0,3,184.44,476.025,38.1802,2.7987
ecg,75,0,4,185.31,474.995,175.2123,3.9538
ecg,75,0,5,187.21,475.06,106.9292,0.4808
ecg,75,0,6,185.79,475.395,175.5526,2.7082
ecg,75,0,7,185.56,476.37,37.8396,2.8364
ecg,75,0,8,185.295,477.34,175.8704,2.7772
ecg,75,0,9,184.935,478.28,39.335,2.6505
ecg,76,0,0,18.04,296.915,90.0,504.39
ecg,76,0,1,193.68,44.72,0.0,351.28
ecg,76,0,2,369.32,296.915,90.0,504.39
ecg,76,0,3,193.68,549.11,0.0,351.28
ecg,77,0,0,64.955,389.825,54.7231,5.108
ecg,77,0,1,67.655,391.01,143.6954,3.0401
ecg,77,0,2,67.405,388.02,54.7878,5.1161
ecg,78,0,0,182.125,186.525,30.7312,9.2953
ecg,78,0,1,186.915,187.495,119.5027,3.2286
ecg,78,0,2,183.71,183.75,30.3276,9.2684
ecg,79,0,0,274.825,333.265,179.0955,18.3723
ecg,79,0,1,283.94,327.79,89.2477,10.6609
ecg,79,0,2,274.645,322.605,179.0995,18.4523
ecg,80,0,0,291.54,331.75,0.0,5.98
ecg,80,0,1,294.53,330.165,90.0,3.17
ecg,80,0,2,291.575,328.58,0.0,5.91
ecg,81,0,0,310.245,331.83,177.782,18.6039
ecg,81,0,1,319.325,326.28,87.6279,10.3889
ecg,81,0,2,309.85,321.45,177.7736,18.534
ecg,82,0,0,334.125,337.765,24.1403,6.8709
ecg,82,0,1,338.52,336.255,113.3765,6.3513
ecg,82,0,2,336.72,331.97,24.1188,6.7054
ecg,83,0,0,256.475,339.14,0.0,1.73
ecg,83,0,1,257.34,337.915,90.0,2.45
ecg,83,0,2,256.475,336.69,0.0,1.73
ecg,84,0,0,238.445,319.465,178.2952,35.9659
ecg,84,0,1,256.57,323.955,88.2903,10.0545
ecg,84,0,2,238.745,329.515,178.2952,35.9659
ecg,85,0,0,164.575,352.745,41.1188,10.4467
ecg,85,0,1,166.92,358.005,131.0633,4.841
ecg,85,0,2,161.39,356.4,41.0415,10.4477
ecg,86,0,0,162.885,357.7,41.0612,6.4853
ecg,86,0,1,158.3,358.02,131.1362,6.506
ecg,86,0,2,158.605,362.605,41.1278,6.4919
ecg,87,0,0,151.36,341.345,40.8089,6.2889
ecg,87,0,1,152.745,344.545,130.9904,3.0338
ecg,87,0,2,149.375,343.635,40.8684,6.2813
ecg,88,0,0,179.955,347.47,135.1979,18.4202
ecg,88,0,1,177.125,357.87,46.5421,10.7731
ecg,88,0,2,187.36,355.285,135.1539,18.4202
ecg,89,0,0,62.72,378.035,54.5247,18.1614
ecg,89,0,1,72.28,382.37,144.5003,10.539
ecg,89,0,2,71.3,371.92,54.5063,18.1532
ecg,90,0,0,50.5,361.245,54.5247,18.1614
ecg,90,0,1,60.06,365.58,144.5003,10.539
ecg,90,0,2,59.08,355.13,54.5063,18.1532
ecg,91,0,0,199.44,199.505,30.8955,18.7156
ecg,91,0,1,204.735,208.89,120.844,10.669
ecg,91,0,2,193.965,208.66,30.906,18.7294
ecg,92,0,0,216.88,210.0,30.9218,18.7208
ecg,92,0,1,222.175,219.385,120.8716,10.6604
ecg,92,0,2,211.405,219.155,30.8798,18.7242
ecg,93,0,0,206.865,210.22,120.759,6.2374
ecg,93,0,1,207.11,206.735,30.8077,3.1436
ecg,93,0,2,204.165,208.61,120.7589,6.2375
ecg,94,0,0,173.625,181.465,30.4849,4.514
ecg,94,0,1,172.52,178.89,120.4305,3.3169
ecg,94,0,2,175.305,178.61,30.594,4.5191
ecg,95,0,0,167.995,183.205,118.7663,7.3352
ecg,95,0,1,166.135,177.675,32.5632,8.6023
ecg,95,0,2,160.745,178.58,118.7287,7.344
ecg,96,0,0,156.295,181.165,118.7565,9.7072
ecg,96,0,1,157.095,176.065,28.8324,3.5044
ecg,96,0,2,153.22,179.48,118.7798,9.7208
ecg,97,0,0,155.665,180.865,118.7565,9.7072
ecg,97,0,1,156.465,175.765,28.8324,3.5044
ecg,97,0,2,152.59,179.175,118.8082,9.712
ecg,98,0,0,151.08,177.985,118.8081,9.712
ecg,98,0,1,151.88,172.885,28.7538,3.5132
ecg,98,0,2,148.005,176.295,118.7565,9.7072
ecg,99,0,0,193.175,306.895,177.259,318.0539
ecg,99,0,1,351.84,295.725,87.1092,7.1391
ecg,99,0,2,192.815,299.76,177.2608,318.0534
ecg,100,0,0,99.83,188.185,177.6477,7.066
ecg,100,0,1,107.865,287.91,87.4172,199.9431
ecg,100,0,2,108.835,387.925,177.6511,7.0759
ecg,100,0,3,100.8,288.2,87.4201,199.9427
ecg,101,0,0,105.675,202.37,40.9942,2.5306
ecg,101,0,1,107.87,203.47,12.2842,2.5381
ecg,101,0,2,110.32,203.37,162.9967,2.5306
ecg,101,0,3,112.41,202.09,134.0402,2.5318
ecg,102,0,0,105.605,200.63,134.2019,2.5388
ecg,102,0,1,107.7,199.35,162.9974,2.5306
ecg,102,0,2,110.145,199.245,12.1106,2.5262
ecg,102,0,3,112.335,200.345,41.165,2.5371
ecg,103,0,0,103.84,202.45,134.0397,2.5318
ecg,103,0,1,101.75,203.725,163.2143,2.5277
ecg,103,0,2,99.3,203.825,12.0632,2.536
ecg,103,0,3,97.11,202.73,41.1434,2.523
ecg,104,0,0,88.545,203.09,40.9942,2.5306
ecg,104,0,1,90.735,204.185,12.1106,2.5262
ecg,104,0,2,93.185,204.085,163.2789,2.5373
ecg,104,0,3,95.28,202.81,134.0402,2.5318
ecg,105,0,0,103.77,200.705,41.314,2.5296
ecg,105,0,1,101.58,199.605,12.0632,2.536
ecg,105,0,2,99.13,199.71,162.9967,2.5306
ecg,105,0,3,97.04,200.99,134.0401,2.5318
ecg,106,0,0,88.47,201.35,134.0397,2.5318
ecg,106,0,1,90.56,200.07,162.9973,2.5306
ecg,106,0,2,93.01,199.965,12.0632,2.536
ecg,106,0,3,95.205,201.065,41.165,2.5371
ecg,107,0,0,94.315,233.435,86.2624,9.9712
ecg,108,0,0,175.735,127.22,0.0,315.39
ecg,109,0,0,366.005,127.22,0.0,6.63
ecg,110,0,0,262.1,50.555,90.0,11.53
ecg,111,0,0,262.1,157.415,90.0,183.03
ecg,112,0,0,45.14,50.555,90.0,11.53
ecg,113,0,0,94.385,240.135,76.5763,3.403
ecg,113,0,1,94.315,238.515,6.1472,0.6538
ecg,113,0,2,94.93,238.48,166.4282,0.5967
ecg,114,0,0,114.0,297.56,130.7321,8.5514
ecg,115,0,0,50.395,395.13,0.0,64.71
ecg,116,0,0,45.14,449.06,90.0,199.24
ecg,117,0,0,98.925,332.615,86.4877,10.6099
ecg,118,0,0,89.49,315.47,177.2224,7.4287
ecg,119,0,0,98.855,326.24,76.6153,3.4127
ecg,119,0,1,98.925,327.865,6.1472,0.6538
ecg,119,0,2,98.315,327.9,166.1991,0.5869
ecg,120,0,0,94.425,315.54,166.4128,3.4053
ecg,120,0,1,92.805,315.615,96.1467,0.6538
ecg,120,0,2,92.765,314.965,77.0051,0.6671
ecg,121,0,0,96.14,395.13,0.0,16.7
ecg,122,0,0,180.4,177.05,117.6595,17.7934
ecg,123,0,0,175.45,185.76,108.122,3.4722
ecg,123,0,1,176.21,184.32,43.6665,0.6083
ecg,123,0,2,176.745,184.62,15.945,0.6552
ecg,124,0,0,155.91,358.08,58.2665,1.7872
ecg,124,0,1,154.575,357.175,9.5158,1.7541
ecg,124,0,2,154.325,356.385,133.6358,1.7824
ecg,124,0,3,154.865,354.84,85.2365,1.8062
ecg,124,0,4,155.585,354.3,24.3625,1.7454
ecg,124,0,5,157.17,354.335,157.6378,1.7085
ecg,124,0,6,157.89,354.875,94.6266,1.7357
ecg,124,0,7,158.395,356.385,48.2842,1.7282
ecg,124,0,8,158.105,357.175,170.4842,1.7541
ecg,125,0,0,157.295,356.52,113.0966,0.7392
ecg,125,0,1,156.81,357.005,156.9028,0.7393
ecg,125,0,2,156.125,357.005,22.7971,0.7485
ecg,125,0,3,155.64,356.52,67.6197,0.7354
ecg,125,0,4,155.64,355.835,112.087,0.7446
ecg,125,0,5,156.125,355.35,157.913,0.7446
ecg,125,0,6,156.81,355.35,22.3798,0.7354
ecg,125,0,7,157.295,355.835,67.204,0.7485
ecg,126,0,0,142.6,353.925,124.569,20.9729
ecg,127,0,0,165.975,362.475,27.6738,3.4666
ecg,127,0,1,167.255,363.455,145.5392,0.6186
ecg,127,0,2,166.895,363.955,107.9039,0.6831
ecg,128,0,0,176.425,371.14,38.1408,25.5183
ecg,129,0,0,181.5,276.32,13.9369,16.7738
ecg,130,0,0,190.8,278.915,2.4823,3.4633
ecg,130,0,1,189.215,278.555,116.9661,0.6395
ecg,130,0,2,189.36,277.91,90.0,0.72
ecg,131,0,0,353.645,308.195,79.43,10.6304
ecg,132,0,0,281.735,290.07,176.8652,10.6059
ecg,133,0,0,352.78,301.71,69.3664,3.4621
ecg,133,0,1,353.065,303.295,6.1447,0.6537
ecg,133,0,2,352.455,303.4,153.8388,0.6351
ecg,134,0,0,275.285,290.175,166.5762,3.403
ecg,134,0,1,276.905,290.105,96.1473,0.6538
ecg,134,0,2,276.94,290.755,77.8443,0.6649
ecg,135,0,0,282.925,345.625,52.4951,25.8036
ecg,135,0,1,300.395,344.76,130.8996,29.3706
ecg,136,0,0,274.995,334.745,41.7295,3.4705
ecg,136,0,1,276.005,336.045,153.0339,0.6395
ecg,136,0,2,275.5,336.44,131.3479,0.666
ecg,137,0,0,310.955,333.085,119.7247,3.4891
ecg,137,0,1,309.87,334.31,52.8145,0.728
ecg,137,0,2,309.365,333.88,26.1624,0.635
ecg,138,0,0,366.005,395.13,0.0,6.63
ecg,139,0,0,154.145,367.83,97.1957,12.055
ecg,140,0,0,155.295,361.13,86.5267,3.4664
ecg,140,0,1,155.115,362.75,21.1047,0.611
ecg,140,0,2,154.505,362.675,173.854,0.6538
ecg,141,0,0,119.54,389.19,15.8657,9.8762
ecg,142,0,0,114.53,387.415,4.7909,3.4721
ecg,142,0,1,116.115,387.85,116.5651,0.6485
ecg,142,0,2,115.935,388.5,95.5529,0.7234
ecg,143,0,0,90.4,187.055,12.8927,6.3193
ecg,144,0,0,93.56,188.11,2.3173,3.4628
ecg,144,0,1,91.975,187.75,116.5657,0.6484
ecg,144,0,2,92.12,187.135,90.0,0.65
ecg,145,0,0,109.87,301.875,120.3642,3.4422
ecg,145,0,1,110.92,300.665,56.7928,0.6573
ecg,145,0,2,111.395,301.065,22.9636,0.6408
ecg,146,0,0,106.15,307.735,112.5673,0.8338
ecg,146,0,1,105.6,308.28,157.6933,0.8431
ecg,146,0,2,104.825,308.28,22.5674,0.8339
ecg,146,0,3,104.275,307.735,66.8015,0.8377
ecg,146,0,4,104.275,306.96,112.9318,0.8469
ecg,146,0,5,104.825,306.41,157.4326,0.8339
ecg,146,0,6,105.6,306.41,22.3067,0.8431
ecg,146,0,7,106.15,306.96,67.6938,0.8431
ecg,147,0,0,45.14,166.42,90.0,201.18
ecg,148,0,0,45.14,297.82,90.0,67.94
ecg,149,0,0,159.6,164.075,101.8415,15.0094
ecg,150,0,0,157.32,163.1,120.9505,14.8552
ecg,151,0,0,152.985,169.69,110.1676,3.4516
ecg,151,0,1,153.82,168.3,43.7808,0.6648
ecg,151,0,2,154.375,168.635,18.4341,0.6641
ecg,152,0,0,157.63,171.88,90.9992,3.4405
ecg,152,0,1,157.965,170.295,23.8744,0.6671
ecg,152,0,2,158.6,170.425,179.1338,0.6601
ecg,153,0,0,192.84,182.7,171.169,9.2497
ecg,154,0,0,187.575,183.185,160.514,3.4475
ecg,154,0,1,189.175,182.94,94.3326,0.6619
ecg,154,0,2,189.275,183.58,68.0393,0.6685
ecg,155,0,0,186.56,369.665,90.6124,18.7111
ecg,156,0,0,186.985,360.035,79.7993,3.4444
ecg,156,0,1,186.965,361.655,12.9942,0.6671
ecg,156,0,2,186.315,361.65,167.8453,0.6649
ecg,157,0,0,147.86,346.87,113.5914,3.4482
ecg,157,0,1,146.94,348.205,46.8096,0.6721
ecg,157,0,2,146.405,347.835,22.2856,0.6592
ecg,158,0,0,214.74,201.45,127.0905,9.3521
ecg,159,0,0,212.68,203.635,116.1931,3.4436
ecg,159,0,1,213.655,202.34,49.305,0.6595
ecg,159,0,2,214.175,202.73,24.6558,0.6712
ecg,160,0,0,223.415,395.13,0.0,218.89
ecg,161,0,0,262.1,404.74,90.0,287.88
ecg,162,0,0,54.96,84.045,11.7654,0.2452
ecg,162,0,1,55.19,84.12,24.4455,0.2417
ecg,162,0,2,55.39,84.235,35.8386,0.222
ecg,162,0,3,55.56,84.38,45.0007,0.2263
ecg,162,0,4,55.705,84.55,54.161,0.222
ecg,162,0,5,55.815,84.745,66.8005,0.2285
ecg,162,0,6,55.89,84.965,75.3795,0.2377
ecg,162,0,7,55.93,85.195,85.0313,0.2309
ecg,162,0,8,55.92,85.47,97.125,0.3225
ecg,162,0,9,55.84,85.775,112.4793,0.3139
ecg,162,0,10,55.69,86.05,124.6942,0.3162
ecg,162,0,11,55.48,86.285,138.815,0.3189
ecg,162,0,12,55.21,86.45,158.1993,0.3231
ecg,162,0,13,54.905,86.54,169.0464,0.3158
ecg,162,0,14,54.585,86.58,176.5284,0.3306
ecg,162,0,15,54.26,86.595,178.2138,0.3202
ecg,162,0,16,53.74,86.6,0.0,0.72
ecg,162,0,17,53.38,84.3,90.0,4.6
ecg,162,0,18,53.68,82.0,0.0,0.6
ecg,162,0,19,53.98,82.98,90.0,1.96
ecg,162,0,20,54.1,83.96,0.0,0.24
ecg,162,0,21,54.91,82.98,125.1487,2.3971
ecg,162,0,22,55.945,82.0,0.0,0.69
ecg,162,0,23,55.565,83.01,125.6718,2.4865
ecg,162,1,0,54.06,86.09,0.0,0.16
ecg,162,1,1,54.25,86.085,177.3949,0.2202
ecg,162,1,2,54.47,86.07,174.8084,0.2209
ecg,162,1,3,54.69,86.04,169.6929,0.2236
ecg,162,1,4,54.9,85.985,160.7082,0.2119
ecg,162,1,5,55.085,85.9,149.5332,0.1972
ecg,162,1,6,55.24,85.78,135.0031,0.198
ecg,162,1,7,55.35,85.615,112.8329,0.2062
ecg,162,1,8,55.41,85.405,99.8656,0.2335
ecg,162,1,9,55.415,85.17,82.875,0.2419
ecg,162,1,10,55.355,84.955,64.6541,0.2102
ecg,162,1,11,55.25,84.79,49.3948,0.1844
ecg,162,1,12,55.105,84.665,32.9093,0.2025
ecg,162,1,13,54.925,84.575,20.2269,0.2025
ecg,162,1,14,54.725,84.52,10.7784,0.2138
ecg,162,1,15,54.505,84.49,4.9746,0.2309
ecg,162,1,16,54.28,84.475,2.5972,0.2202
ecg,162,1,17,54.075,84.47,0.0,0.19
ecg,162,1,18,53.98,85.28,90.0,1.62
ecg,163,0,0,58.18,82.0,0.0,2.5
ecg,163,0,1,59.43,82.255,90.0,0.51
ecg,163,0,2,58.475,82.51,0.0,1.91
ecg,163,0,3,57.52,83.405,90.0,1.79
ecg,163,0,4,58.445,84.3,0.0,1.85
ecg,163,0,5,59.37,84.555,90.0,0.51
ecg,163,0,6,58.445,84.81,0.0,1.85
ecg,163,0,7,57.52,85.45,90.0,1.28
ecg,163,0,8,58.475,86.09,0.0,1.91
ecg,163,0,9,59.43,86.345,90.0,0.51
ecg,163,0,10,58.18,86.6,0.0,2.5
ecg,163,0,11,56.93,84.3,90.0,4.6
ecg,164,0,0,63.365,82.595,114.0071,1.3027
ecg,164,0,1,63.94,82.0,0.0,0.62
ecg,164,0,2,63.145,84.42,114.542,5.3207
ecg,164,0,3,60.935,84.42,65.458,5.3207
ecg,164,0,4,60.14,82.0,0.0,0.62
ecg,164,0,5,60.715,82.595,65.9928,1.3027
ecg,164,0,6,62.04,83.19,0.0,2.12
ecg,164,1,0,62.035,83.7,0.0,1.65
ecg,164,1,1,61.625,84.635,66.0659,2.0459
ecg,164,1,2,62.45,84.635,113.6776,2.0419
ecg,165,0,0,65.34,82.0,0.0,0.96
ecg,165,0,1,65.955,82.005,2.1231,0.2702
ecg,165,0,2,66.22,82.025,6.5818,0.2617
ecg,165,0,3,66.475,82.06,9.0854,0.2532
ecg,165,0,4,66.72,82.11,14.0422,0.2474
ecg,165,0,5,66.955,82.18,19.1764,0.2435
ecg,165,0,6,67.175,82.27,25.4648,0.2326
ecg,165,0,7,67.385,82.38,29.744,0.2419
ecg,165,0,8,67.58,82.505,35.8386,0.222
ecg,165,0,9,67.755,82.645,41.4215,0.2267
ecg,165,0,10,67.915,82.81,50.1944,0.2343
ecg,165,0,11,68.055,82.995,55.619,0.2302
ecg,165,0,12,68.175,83.19,61.1905,0.2283
ecg,165,0,13,68.275,83.405,68.6285,0.247
ecg,165,0,14,68.35,83.645,76.5048,0.2571
ecg,165,0,15,68.4,83.905,81.5734,0.273
ecg,165,0,16,68.43,84.18,85.9135,0.2807
ecg,165,0,17,68.43,84.46,94.0865,0.2807
ecg,165,0,18,68.4,84.73,98.747,0.263
ecg,165,0,19,68.35,84.985,103.4952,0.2571
ecg,165,0,20,68.275,85.22,112.2481,0.2377
ecg,165,0,21,68.175,85.43,118.8095,0.2283
ecg,165,0,22,68.055,85.625,124.381,0.2302
ecg,165,0,23,67.91,85.805,133.2613,0.2335
ecg,165,0,24,67.745,85.965,138.5772,0.2267
ecg,165,0,25,67.57,86.105,144.1614,0.222
ecg,165,0,26,67.38,86.23,149.0379,0.2332
ecg,165,0,27,67.17,86.335,157.7519,0.2377
ecg,165,0,28,66.95,86.42,160.0194,0.2341
ecg,165,0,29,66.72,86.49,165.9646,0.2474
ecg,165,0,30,66.475,86.54,170.9078,0.2532
ecg,165,0,31,66.225,86.575,173.1575,0.2518
ecg,165,0,32,65.97,86.595,177.7952,0.2602
ecg,165,0,33,65.35,86.6,0.0,0.98
ecg,165,0,34,64.86,84.3,90.0,4.6
ecg,165,1,0,65.56,86.09,0.0,0.2
ecg,165,1,1,65.77,86.085,177.3948,0.2202
ecg,165,1,2,65.985,86.075,177.2794,0.2102
ecg,165,1,3,66.19,86.055,171.4694,0.2022
ecg,165,1,4,66.39,86.02,168.6875,0.204
ecg,165,1,5,66.585,85.97,162.4753,0.1993
ecg,165,1,6,66.77,85.91,161.5658,0.1897
ecg,165,1,7,66.945,85.84,154.7939,0.1879
ecg,165,1,8,67.11,85.75,148.0015,0.1887
ecg,165,1,9,67.26,85.645,141.8386,0.1781
ecg,165,1,10,67.395,85.525,134.9983,0.1838
ecg,165,1,11,67.515,85.385,126.2551,0.186
ecg,165,1,12,67.615,85.23,119.3583,0.1836
ecg,165,1,13,67.7,85.06,113.9618,0.197
ecg,165,1,14,67.77,84.865,105.9473,0.2184
ecg,165,1,15,67.815,84.65,97.7648,0.222
ecg,165,1,16,67.835,84.42,92.3862,0.2402
ecg,165,1,17,67.835,84.18,87.6134,0.2402
ecg,165,1,18,67.815,83.95,82.2352,0.222
ecg,165,1,19,67.77,83.74,73.2979,0.2088
ecg,165,1,20,67.7,83.545,67.1681,0.2062
ecg,165,1,21,67.615,83.37,60.6417,0.1836
ecg,165,1,22,67.515,83.215,53.7449,0.186
ecg,165,1,23,67.395,83.075,45.0017,0.1838
ecg,165,1,24,67.26,82.955,38.1614,0.1781
ecg,165,1,25,67.11,82.85,32.0064,0.1887
ecg,165,1,26,66.945,82.76,25.1977,0.1879
ecg,165,1,27,66.77,82.69,18.4342,0.1897
ecg,165,1,28,66.585,82.63,17.5247,0.1993
ecg,165,1,29,66.39,82.58,11.3125,0.204
ecg,165,1,30,66.19,82.545,8.5306,0.2022
ecg,165,1,31,65.985,82.525,2.7289,0.2102
ecg,165,1,32,65.77,82.515,2.5972,0.2202
ecg,165,1,33,65.56,82.51,0.0,0.2
ecg,165,1,34,65.46,84.3,90.0,3.58
ecg,166,0,0,69.69,82.0,0.0,1.08
ecg,166,0,1,70.37,82.01,4.0834,0.2807
ecg,166,0,2,70.65,82.045,10.1283,0.2844
ecg,166,0,3,70.925,82.12,20.324,0.2879
ecg,166,0,4,71.18,82.235,28.4384,0.2729
ecg,166,0,5,71.4,82.39,41.9913,0.2691
ecg,166,0,6,71.58,82.59,53.9722,0.272
ecg,166,0,7,71.685,82.765,68.9605,0.1393
ecg,166,0,8,71.735,82.905,71.5668,0.1581
ecg,166,0,9,71.77,83.055,82.4063,0.1513
ecg,166,0,10,71.785,83.215,86.6325,0.1703
ecg,166,0,11,71.785,83.4,92.8628,0.2003
ecg,166,0,12,71.75,83.6,106.6976,0.2088
ecg,166,0,13,71.68,83.79,113.9638,0.197
ecg,166,0,14,71.585,83.965,122.908,0.2025
ecg,166,0,15,71.46,84.12,134.9969,0.198
ecg,166,0,16,71.315,84.25,141.3416,0.1921
ecg,166,0,17,71.15,84.355,153.4349,0.2012
ecg,166,0,18,70.965,84.425,165.2515,0.1965
ecg,166,0,19,70.87,84.455,90.0,0.01
ecg,166,0,20,70.975,84.535,35.5367,0.2581
ecg,166,0,21,71.16,84.715,52.6996,0.264
ecg,166,0,22,71.29,84.95,68.9598,0.2786
ecg,166,0,23,71.355,85.205,83.1575,0.2518
ecg,166,0,24,71.365,85.425,93.0134,0.1903
ecg,166,0,25,71.345,85.605,100.0068,0.1726
ecg,166,0,26,71.31,85.765,104.9323,0.1552
ecg,166,0,27,71.26,85.905,114.7734,0.1432
ecg,166,0,28,71.15,86.08,126.0278,0.272
ecg,166,0,29,70.97,86.275,139.6379,0.2625
ecg,166,0,30,70.745,86.415,156.2475,0.2731
ecg,166,0,31,70.485,86.51,163.4985,0.2816
ecg,166,0,32,70.2,86.57,172.4036,0.3027
ecg,166,0,33,69.895,86.595,178.1506,0.3102
ecg,166,0,34,69.445,86.6,0.0,0.59
ecg,166,0,35,69.15,84.3,90.0,4.6
ecg,166,1,0,69.825,86.09,0.0,0.15
ecg,166,1,1,70.0,86.085,177.1348,0.2002
ecg,166,1,2,70.185,86.07,173.294,0.1712
ecg,166,1,3,70.355,86.04,166.7566,0.1746
ecg,166,1,4,70.51,85.985,153.4424,0.1565
ecg,166,1,5,70.635,85.9,137.7247,0.1487
ecg,166,1,6,70.735,85.785,124.6931,0.1581
ecg,166,1,7,70.81,85.635,109.4402,0.1803
ecg,166,1,8,70.85,85.44,95.1935,0.2209
ecg,166,1,9,70.85,85.215,85.0307,0.2308
ecg,166,1,10,70.81,85.015,70.5598,0.1803
ecg,166,1,11,70.735,84.86,57.2629,0.1664
ecg,166,1,12,70.63,84.74,39.8066,0.1562
ecg,166,1,13,70.5,84.655,26.5675,0.1565
ecg,166,1,14,70.35,84.6,14.0395,0.1649
ecg,166,1,15,70.18,84.57,6.3367,0.1811
ecg,166,1,16,69.99,84.56,0.0,0.2
ecg,166,1,17,69.82,84.56,0.0,0.14
ecg,166,1,18,69.75,85.325,90.0,1.53
ecg,166,2,0,69.925,84.13,0.0,0.35
ecg,166,2,1,70.19,84.125,176.8171,0.1803
ecg,166,2,2,70.375,84.11,173.9943,0.1911
ecg,166,2,3,70.56,84.075,164.4705,0.1868
ecg,166,2,4,70.735,84.015,157.6263,0.1838
ecg,166,2,5,70.895,83.93,146.3086,0.1803
ecg,166,2,6,71.03,83.81,130.599,0.1844
ecg,166,2,7,71.13,83.65,113.9618,0.197
ecg,166,2,8,71.185,83.45,97.7668,0.222
ecg,166,2,9,71.185,83.225,82.5674,0.232
ecg,166,2,10,71.14,83.02,71.5651,0.1897
ecg,166,2,11,71.055,82.855,53.7449,0.186
ecg,166,2,12,70.935,82.73,37.5709,0.164
ecg,166,2,13,70.79,82.64,26.5607,0.1789
ecg,166,2,14,70.625,82.575,16.3954,0.1772
ecg,166,2,15,70.45,82.535,9.4619,0.1825
ecg,166,2,16,70.265,82.515,3.0065,0.1903
ecg,166,2,17,69.96,82.51,0.0,0.42
ecg,166,2,18,69.75,83.32,90.0,1.62
ecg,167,0,0,75.68,82.595,113.6039,1.2987
ecg,167,0,1,76.255,82.0,0.0,0.63
ecg,167,0,2,75.46,84.42,114.6399,5.3248
ecg,167,0,3,73.245,84.42,65.458,5.3207
ecg,167,0,4,72.45,82.0,0.0,0.62
ecg,167,0,5,73.025,82.595,65.9926,1.3027
ecg,167,0,6,74.355,83.19,0.0,2.13
ecg,167,1,0,74.355,83.7,0.0,1.65
ecg,167,1,1,73.94,84.635,66.3224,2.0419
ecg,167,1,2,74.765,84.635,113.9342,2.0459
ecg,168,0,0,80.425,86.535,154.2889,0.2997
ecg,168,0,1,80.145,86.65,160.9734,0.3068
ecg,168,0,2,79.85,86.725,170.54,0.3041
ecg,168,0,3,79.55,86.76,176.1881,0.3007
ecg,168,0,4,79.275,86.765,2.2859,0.2502
ecg,168,0,5,79.025,86.74,9.0922,0.2532
ecg,168,0,6,78.78,86.69,14.0358,0.2474
ecg,168,0,7,78.55,86.62,19.9869,0.2341
ecg,168,0,8,78.33,86.53,24.4393,0.2416
ecg,168,0,9,78.12,86.42,30.9621,0.2332
ecg,168,0,10,77.92,86.29,34.9952,0.2441
ecg,168,0,11,77.735,86.14,43.264,0.2335
ecg,168,0,12,77.57,85.975,46.7335,0.2334
ecg,168,0,13,77.415,85.795,51.7099,0.2421
ecg,168,0,14,77.28,85.6,59.0388,0.2332
ecg,168,0,15,77.165,85.395,62.3529,0.2371
ecg,168,0,16,77.07,85.175,70.8214,0.2435
ecg,168,0,17,77.0,84.94,75.9638,0.2474
ecg,168,0,18,76.95,84.695,80.9095,0.2532
ecg,168,0,19,76.925,84.445,87.7089,0.2502
ecg,168,0,20,76.925,84.195,92.2911,0.2502
ecg,168,0,21,76.95,83.945,99.0905,0.2532
ecg,168,0,22,77.0,83.705,104.6196,0.2377
ecg,168,0,23,77.07,83.48,109.9834,0.2341
ecg,168,0,24,77.165,83.265,117.6471,0.2371
ecg,168,0,25,77.28,83.06,120.9612,0.2332
ecg,168,0,26,77.41,82.87,127.876,0.228
ecg,168,0,27,77.56,82.695,133.2678,0.2334
ecg,168,0,28,77.725,82.53,136.7347,0.2335
ecg,168,0,29,77.905,82.385,145.619,0.2302
ecg,168,0,30,78.1,82.26,149.0369,0.2332
ecg,168,0,31,78.305,82.15,154.5352,0.2326
ecg,168,0,32,78.52,82.06,160.0131,0.2341
ecg,168,0,33,78.745,81.99,165.387,0.2377
ecg,168,0,34,78.98,81.945,172.868,0.2419
ecg,168,0,35,79.225,81.925,177.7072,0.2502
ecg,168,0,36,79.505,81.93,3.695,0.3106
ecg,168,0,37,79.815,81.97,10.9534,0.3158
ecg,168,0,38,80.125,82.05,17.8799,0.3257
ecg,168,0,39,80.42,82.165,24.9057,0.3087
ecg,168,0,40,80.56,82.57,90.0,0.68
ecg,168,0,41,80.425,82.81,36.5309,0.336
ecg,168,0,42,80.14,82.63,28.0728,0.34
ecg,168,0,43,79.83,82.505,15.708,0.3324
ecg,168,0,44,79.5,82.445,5.0422,0.3413
ecg,168,0,45,79.235,82.435,176.9842,0.1903
ecg,168,0,46,79.05,82.455,170.5381,0.1825
ecg,168,0,47,78.87,82.49,167.4686,0.1844
ecg,168,0,48,78.695,82.545,157.6263,0.1838
ecg,168,0,49,78.455,82.67,149.8558,0.3585
ecg,168,0,50,78.17,82.88,137.2912,0.3538
ecg,168,0,51,77.93,83.14,128.1575,0.3561
ecg,168,0,52,77.735,83.44,117.9797,0.3624
ecg,168,0,53,77.62,83.69,108.4349,0.1897
ecg,168,0,54,77.57,83.87,102.5296,0.1844
ecg,168,0,55,77.535,84.055,98.9722,0.1924
ecg,168,0,56,77.52,84.245,90.0,0.19
ecg,168,0,57,77.52,84.435,90.0,0.19
ecg,168,0,58,77.535,84.625,81.0278,0.1924
ecg,168,0,59,77.575,84.81,74.4744,0.1868
ecg,168,0,60,77.63,84.99,71.5651,0.1897
ecg,168,0,61,77.74,85.24,63.4349,0.3578
ecg,168,0,62,77.93,85.545,52.816,0.364
ecg,168,0,63,78.175,85.805,40.4278,0.3547
ecg,168,0,64,78.465,86.01,30.1406,0.3585
ecg,168,0,65,78.705,86.135,22.3816,0.1839
ecg,168,0,66,78.88,86.195,15.5205,0.1868
ecg,168,0,67,79.06,86.235,9.4623,0.1825
ecg,168,0,68,79.245,86.255,3.0157,0.1903
ecg,168,0,69,79.505,86.245,174.8058,0.3314
ecg,168,0,70,79.83,86.185,164.292,0.3324
ecg,168,0,71,80.14,86.065,153.4315,0.3354
ecg,168,0,72,80.425,85.895,144.8651,0.3302
ecg,168,0,73,80.56,86.135,90.0,0.67
ecg,169,0,0,82.04,85.62,90.0,1.96
ecg,169,0,1,81.74,86.6,0.0,0.6
ecg,169,0,2,81.44,84.3,90.0,4.6
ecg,169,0,3,81.74,82.0,0.0,0.6
ecg,169,0,4,82.04,82.98,90.0,1.96
ecg,169,0,5,82.155,84.07,43.7267,0.3183
ecg,169,0,6,83.14,83.09,128.5953,2.7893
ecg,169,0,7,84.4,82.0,0.0,0.78
ecg,169,0,8,83.735,83.285,129.3863,3.3252
ecg,169,0,9,83.715,85.585,44.441,2.8993
ecg,169,0,10,84.375,86.6,0.0,0.75
ecg,169,0,11,83.02,85.62,44.9999,2.7719
ecg,170,0,0,89.29,86.765,2.3883,0.2402
ecg,170,0,1,89.05,86.74,9.457,0.2433
ecg,170,0,2,88.815,86.69,14.6206,0.2377
ecg,170,0,3,88.59,86.62,19.9869,0.2341
ecg,170,0,4,88.37,86.53,24.4452,0.2417
ecg,170,0,5,88.16,86.42,30.9631,0.2332
ecg,170,0,6,87.97,86.29,37.8718,0.228
ecg,170,0,7,87.79,86.14,41.6341,0.2408
ecg,170,0,8,87.625,85.975,48.5783,0.2267
ecg,170,0,9,87.475,85.8,50.193,0.2343
ecg,170,0,10,87.34,85.61,59.0388,0.2332
ecg,170,0,11,87.23,85.4,65.5548,0.2417
ecg,170,0,12,87.135,85.18,67.7519,0.2377
ecg,170,0,13,87.06,84.955,75.3785,0.2377
ecg,170,0,14,87.015,84.715,83.1558,0.2518
ecg,170,0,15,86.99,84.465,85.4268,0.2508
ecg,170,0,16,86.99,84.21,94.3978,0.2608
ecg,170,0,17,87.015,83.955,96.8442,0.2518
ecg,170,0,18,87.06,83.715,104.6196,0.2377
ecg,170,0,19,87.135,83.485,111.3715,0.247
ecg,170,0,20,87.23,83.265,115.4656,0.2326
ecg,170,0,21,87.34,83.06,120.9612,0.2332
ecg,170,0,22,87.47,82.865,126.3839,0.236
ecg,170,0,23,87.62,82.685,133.2627,0.2335
ecg,170,0,24,87.785,82.525,138.5772,0.2267
ecg,170,0,25,87.965,82.38,143.6191,0.236
ecg,170,0,26,88.16,82.255,151.1853,0.2283
ecg,170,0,27,88.365,82.15,154.5352,0.2326
ecg,170,0,28,88.58,82.06,160.0201,0.2341
ecg,170,0,29,88.805,81.99,165.3728,0.2377
ecg,170,0,30,89.04,81.945,172.8824,0.2419
ecg,170,0,31,89.285,81.925,177.7072,0.2502
ecg,170,0,32,89.535,81.925,2.2928,0.2502
ecg,170,0,33,89.775,81.945,7.4235,0.2319
ecg,170,0,34,90.01,81.99,14.0427,0.2474
ecg,170,0,35,90.24,82.06,19.9799,0.2341
ecg,170,0,36,90.455,82.15,25.4648,0.2326
ecg,170,0,37,90.66,82.255,28.8147,0.2283
ecg,170,0,38,90.855,82.38,36.3809,0.236
ecg,170,0,39,91.035,82.525,41.4228,0.2267
ecg,170,0,40,91.2,82.685,46.7373,0.2335
ecg,170,0,41,91.35,82.865,53.6161,0.236
ecg,170,0,42,91.48,83.06,59.0388,0.2332
ecg,170,0,43,91.59,83.265,64.5344,0.2326
ecg,170,0,44,91.685,83.485,68.6285,0.247
ecg,170,0,45,91.76,83.715,75.3804,0.2377
ecg,170,0,46,91.805,83.955,83.1558,0.2518
ecg,170,0,47,91.83,84.21,85.6022,0.2608
ecg,170,0,48,91.83,84.465,94.5732,0.2508
ecg,170,0,49,91.805,84.715,96.8442,0.2518
ecg,170,0,50,91.755,84.955,106.9288,0.2404
ecg,170,0,51,91.68,85.18,109.9817,0.2341
ecg,170,0,52,91.59,85.4,114.4452,0.2417
ecg,170,0,53,91.475,85.61,123.0217,0.2385
ecg,170,0,54,91.34,85.8,127.876,0.228
ecg,170,0,55,91.195,85.975,131.4217,0.2267
ecg,170,0,56,91.03,86.14,138.3659,0.2408
ecg,170,0,57,90.845,86.29,143.6191,0.236
ecg,170,0,58,90.65,86.42,149.0369,0.2332
ecg,170,0,59,90.445,86.53,154.5352,0.2326
ecg,170,0,60,90.23,86.62,160.0131,0.2341
ecg,170,0,61,90.005,86.69,165.3794,0.2377
ecg,170,0,62,89.77,86.74,170.543,0.2433
ecg,170,0,63,89.53,86.765,177.6117,0.2402
ecg,170,1,0,89.32,82.435,176.8171,0.1803
ecg,170,1,1,89.14,82.45,173.6633,0.1811
ecg,170,1,2,88.96,82.485,164.4795,0.1868
ecg,170,1,3,88.79,82.54,159.4443,0.1709
ecg,170,1,4,88.55,82.66,150.6391,0.3672
ecg,170,1,5,88.255,82.865,139.5768,0.3547
ecg,170,1,6,88.01,83.12,128.1575,0.3561
ecg,170,1,7,87.815,83.425,117.2539,0.3712
ecg,170,1,8,87.695,83.675,112.3821,0.1838
ecg,170,1,9,87.64,83.855,101.8888,0.1942
ecg,170,1,10,87.605,84.045,98.9722,0.1924
ecg,170,1,11,87.585,84.24,92.8628,0.2003
ecg,170,1,12,87.585,84.44,87.1367,0.2002
ecg,170,1,13,87.6,84.63,83.6617,0.1811
ecg,170,1,14,87.635,84.815,75.2558,0.1965
ecg,170,1,15,87.685,84.995,73.608,0.1772
ecg,170,1,16,87.79,85.245,64.1354,0.3668
ecg,170,1,17,87.98,85.55,51.8425,0.3561
ecg,170,1,18,88.225,85.81,41.6327,0.3612
ecg,170,1,19,88.515,86.02,30.14,0.3585
ecg,170,1,20,88.755,86.14,19.4395,0.1803
ecg,170,1,21,88.93,86.195,15.5295,0.1868
ecg,170,1,22,89.115,86.235,8.9722,0.1924
ecg,170,1,23,89.31,86.255,2.8565,0.2002
ecg,170,1,24,89.51,86.255,177.1435,0.2002
ecg,170,1,25,89.705,86.235,171.0278,0.1924
ecg,170,1,26,89.89,86.195,164.4705,0.1868
ecg,170,1,27,90.065,86.14,160.5605,0.1803
ecg,170,1,28,90.305,86.02,149.86,0.3585
ecg,170,1,29,90.595,85.81,138.3673,0.3612
ecg,170,1,30,90.835,85.55,126.8699,0.35
ecg,170,1,31,91.025,85.245,117.2539,0.3712
ecg,170,1,32,91.135,84.995,106.392,0.1772
ecg,170,1,33,91.185,84.815,104.7442,0.1965
ecg,170,1,34,91.22,84.63,96.3383,0.1811
ecg,170,1,35,91.235,84.44,92.8633,0.2002
ecg,170,1,36,91.235,84.24,87.1372,0.2003
ecg,170,1,37,91.215,84.045,81.0278,0.1924
ecg,170,1,38,91.18,83.855,78.1112,0.1942
ecg,170,1,39,91.125,83.675,67.6179,0.1838
ecg,170,1,40,91.005,83.425,62.7461,0.3712
ecg,170,1,41,90.81,83.12,51.8425,0.3561
ecg,170,1,42,90.56,82.865,39.3984,0.3623
ecg,170,1,43,90.265,82.66,30.1442,0.3585
ecg,170,1,44,90.03,82.54,20.5557,0.1709
ecg,170,1,45,89.86,82.485,15.5205,0.1868
ecg,170,1,46,89.68,82.45,6.3367,0.1811
ecg,170,1,47,89.5,82.435,3.1829,0.1803
ecg,171,0,0,94.87,86.345,90.0,0.51
ecg,171,0,1,93.745,86.6,0.0,2.25
ecg,171,0,2,92.62,84.3,90.0,4.6
ecg,171,0,3,92.915,82.0,0.0,0.59
ecg,171,0,4,93.21,83.15,90.0,2.3
ecg,171,0,5,94.015,84.3,0.0,1.61
ecg,171,0,6,94.82,84.555,90.0,0.51
ecg,171,0,7,94.015,84.81,0.0,1.61
ecg,171,0,8,93.21,85.45,90.0,1.28
ecg,171,0,9,94.04,86.09,0.0,1.66
ecg,172,0,0,100.755,82.595,114.0071,1.3027
ecg,172,0,1,101.33,82.0,0.0,0.62
ecg,172,0,2,100.535,84.42,114.542,5.3207
ecg,172,0,3,98.32,84.42,65.3601,5.3248
ecg,172,0,4,97.52,82.0,0.0,0.62
ecg,172,0,5,98.095,82.595,65.9926,1.3027
ecg,172,0,6,99.425,83.19,0.0,2.13
ecg,172,1,0,99.425,83.7,0.0,1.65
ecg,172,1,1,99.015,84.635,66.0658,2.0459
ecg,172,1,2,99.84,84.635,113.6776,2.0419
ecg,173,0,0,102.55,86.6,0.0,0.6
ecg,173,0,1,102.25,84.3,90.0,4.6
ecg,173,0,2,103.25,82.0,0.0,2.0
ecg,173,0,3,104.25,82.255,90.0,0.51
ecg,173,0,4,103.55,82.51,0.0,1.4
ecg,173,0,5,102.85,84.555,90.0,4.09
ecg,174,0,0,105.125,86.6,0.0,0.59
ecg,174,0,1,104.83,84.3,90.0,4.6
ecg,174,0,2,105.83,82.0,0.0,2.0
ecg,174,0,3,106.83,82.255,90.0,0.51
ecg,174,0,4,106.125,82.51,0.0,1.41
ecg,174,0,5,105.42,84.555,90.0,4.09
ecg,175,0,0,110.97,84.045,11.7656,0.2451
ecg,175,0,1,111.2,84.12,24.4452,0.2417
ecg,175,0,2,111.4,84.235,35.8386,0.222
ecg,175,0,3,111.57,84.38,45.0,0.2263
ecg,175,0,4,111.715,84.55,54.1618,0.222
ecg,175,0,5,111.825,84.745,66.8014,0.2285
ecg,175,0,6,111.895,84.965,77.7351,0.2354
ecg,175,0,7,111.93,85.195,85.0313,0.2309
ecg,175,0,8,111.925,85.47,95.356,0.3214
ecg,175,0,9,111.85,85.775,112.478,0.3139
ecg,175,0,10,111.7,86.05,124.6942,0.3162
ecg,175,0,11,111.485,86.285,139.9709,0.3265
ecg,175,0,12,111.215,86.45,157.5215,0.3138
ecg,175,0,13,110.91,86.54,169.3808,0.3256
ecg,175,0,14,110.59,86.58,176.4202,0.3206
ecg,175,0,15,110.27,86.595,178.2138,0.3202
ecg,175,0,16,109.75,86.6,0.0,0.72
ecg,175,0,17,109.39,84.3,90.0,4.6
ecg,175,0,18,109.69,82.0,0.0,0.6
ecg,175,0,19,109.99,82.98,90.0,1.96
ecg,175,0,20,110.11,83.96,0.0,0.24
ecg,175,0,21,110.92,82.98,125.1489,2.3971
ecg,175,0,22,111.95,82.0,0.0,0.68
ecg,175,0,23,111.57,83.01,125.4842,2.4807
ecg,175,1,0,110.065,86.09,0.0,0.15
ecg,175,1,1,110.255,86.085,177.508,0.2302
ecg,175,1,2,110.48,86.07,174.8084,0.2209
ecg,175,1,3,110.7,86.04,169.6931,0.2236
ecg,175,1,4,110.91,85.985,160.7085,0.2119
ecg,175,1,5,111.095,85.9,149.5327,0.1972
ecg,175,1,6,111.245,85.78,132.8815,0.191
ecg,175,1,7,111.355,85.615,115.3469,0.2102
ecg,175,1,8,111.415,85.405,97.4308,0.232
ecg,175,1,9,111.415,85.17,82.875,0.2419
ecg,175,1,10,111.36,84.955,67.1661,0.2062
ecg,175,1,11,111.255,84.79,47.1168,0.191
ecg,175,1,12,111.11,84.665,34.513,0.1942
ecg,175,1,13,110.935,84.575,20.2266,0.2025
ecg,175,1,14,110.735,84.52,10.7786,0.2138
ecg,175,1,15,110.515,84.49,4.9747,0.2309
ecg,175,1,16,110.285,84.475,2.4844,0.2302
ecg,175,1,17,110.08,84.47,0.0,0.18
ecg,175,1,18,109.99,85.28,90.0,1.62
ecg,176,0,0,112.85,85.145,90.0,2.91
ecg,176,0,1,112.855,83.595,93.0134,0.1903
ecg,176,0,2,112.87,83.41,96.3394,0.1811
ecg,176,0,3,112.9,83.235,103.2398,0.1747
ecg,176,0,4,112.945,83.065,106.392,0.1772
ecg,176,0,5,113.04,82.83,115.0155,0.3311
ecg,176,0,6,113.21,82.55,127.5704,0.328
ecg,176,0,7,113.43,82.315,138.8109,0.3189
ecg,176,0,8,113.695,82.13,151.1176,0.3312
ecg,176,0,9,113.92,82.02,159.4356,0.1709
ecg,176,0,10,114.09,81.97,167.4779,0.1844
ecg,176,0,11,114.27,81.94,173.6537,0.1811
ecg,176,0,12,114.455,81.925,176.9842,0.1903
ecg,176,0,13,114.645,81.925,3.0157,0.1903
ecg,176,0,14,114.835,81.94,6.0148,0.1911
ecg,176,0,15,115.015,81.97,13.2336,0.1746
ecg,176,0,16,115.18,82.02,20.5644,0.1709
ecg,176,0,17,115.405,82.13,28.8831,0.3312
ecg,176,0,18,115.675,82.315,40.0332,0.3265
ecg,176,0,19,115.895,82.55,53.8393,0.322
ecg,176,0,20,116.065,82.83,63.4361,0.3354
ecg,176,0,21,116.165,83.065,73.6103,0.1772
ecg,176,0,22,116.205,83.235,79.9907,0.1726
ecg,176,0,23,116.235,83.41,80.5377,0.1825
ecg,176,0,24,116.255,83.595,86.9866,0.1903
ecg,176,0,25,116.26,85.145,90.0,2.91
ecg,176,0,26,115.96,86.6,0.0,0.6
ecg,176,0,27,115.66,85.245,90.0,2.71
ecg,176,0,28,115.655,83.75,87.9557,0.2802
ecg,176,0,29,115.63,83.475,81.5734,0.273
ecg,176,0,30,115.575,83.215,74.3578,0.2596
ecg,176,0,31,115.49,82.98,65.5548,0.2417
ecg,176,0,32,115.365,82.78,50.1944,0.2343
ecg,176,0,33,115.195,82.62,36.3809,0.236
ecg,176,0,34,115.04,82.525,22.6268,0.13
ecg,176,0,35,114.915,82.48,17.1065,0.136
ecg,176,0,36,114.78,82.45,8.1257,0.1414
ecg,176,0,37,114.63,82.435,3.5797,0.1603
ecg,176,0,38,114.47,82.435,176.4201,0.1603
ecg,176,0,39,114.32,82.45,171.8743,0.1414
ecg,176,0,40,114.185,82.48,162.8944,0.136
ecg,176,0,41,114.065,82.525,155.5468,0.1208
ecg,176,0,42,113.91,82.62,145.0116,0.2441
ecg,176,0,43,113.74,82.78,127.876,0.228
ecg,176,0,44,113.615,82.98,116.5651,0.246
ecg,176,0,45,113.525,83.215,105.6422,0.2596
ecg,176,0,46,113.475,83.475,96.3395,0.2717
ecg,176,0,47,113.455,83.75,92.0459,0.2802
ecg,176,0,48,113.45,85.245,90.0,2.71
ecg,176,0,49,113.15,86.6,0.0,0.6
ecg,177,0,0,117.55,82.0,0.0,0.6
ecg,177,0,1,117.85,83.735,90.0,3.47
ecg,177,0,2,119.55,83.64,132.8909,4.9956
ecg,177,0,3,121.25,84.205,90.0,4.79
ecg,177,0,4,120.955,86.6,0.0,0.59
ecg,177,0,5,120.66,84.92,90.0,3.36
ecg,177,0,6,118.955,85.03,133.6067,4.9442
ecg,177,0,7,117.25,84.41,90.0,4.82
ecg,178,0,0,122.085,86.6,0.0,0.63
ecg,178,0,1,122.73,84.215,111.9256,5.1419
ecg,178,0,2,124.345,83.525,68.8719,3.6343
ecg,178,0,3,125.655,83.525,111.1282,3.6343
ecg,178,0,4,127.275,84.215,67.9711,5.1456
ecg,178,0,5,127.925,86.6,0.0,0.63
ecg,178,0,6,126.96,84.965,68.3195,3.5189
ecg,178,0,7,125.655,85.05,110.8476,3.681
ecg,178,0,8,124.35,85.085,68.9058,3.6121
ecg,178,0,9,123.05,85.0,112.1094,3.454
ecg,179,0,0,131.825,82.595,114.0071,1.3027
ecg,179,0,1,132.4,82.0,0.0,0.62
ecg,179,0,2,131.6,84.42,114.6399,5.3248
ecg,179,0,3,129.385,84.42,65.4581,5.3207
ecg,179,0,4,128.59,82.0,0.0,0.62
ecg,179,0,5,129.165,82.595,65.9929,1.3027
ecg,179,0,6,130.495,83.19,0.0,2.13
ecg,179,1,0,130.495,83.7,0.0,1.65
ecg,179,1,1,130.08,84.635,66.3226,2.0419
ecg,179,1,2,130.905,84.635,113.9342,2.0459
ecg,180,0,0,134.34,83.02,90.0,2.04
ecg,180,0,1,134.635,82.0,0.0,0.59
ecg,180,0,2,134.93,83.02,90.0,2.04
ecg,180,0,3,135.685,85.32,59.4659,2.9722
ecg,180,0,4,136.11,86.6,0.0,0.66
ecg,180,0,5,135.21,85.635,59.4307,2.2415
ecg,180,0,6,134.065,85.635,120.7891,2.2466
ecg,180,0,7,133.16,86.6,0.0,0.66
ecg,180,0,8,133.585,85.32,120.5339,2.9721
ecg,181,0,0,139.63,85.665,90.0,1.87
ecg,181,0,1,139.33,86.6,0.0,0.6
ecg,181,0,2,139.03,84.3,90.0,4.6
ecg,181,0,3,139.33,82.0,0.0,0.6
ecg,181,0,4,139.63,83.105,90.0,2.21
ecg,181,0,5,140.695,84.21,0.0,2.13
ecg,181,0,6,141.76,83.105,90.0,2.21
ecg,181,0,7,142.055,82.0,0.0,0.59
ecg,181,0,8,142.35,84.3,90.0,4.6
ecg,181,0,9,142.055,86.6,0.0,0.59
ecg,181,0,10,141.76,85.665,90.0,1.87
ecg,181,0,11,140.695,84.73,0.0,2.13
ecg,182,0,0,145.35,86.765,2.3882,0.2402
ecg,182,0,1,145.11,86.74,9.4576,0.2433
ecg,182,0,2,144.875,86.69,14.6196,0.2377
ecg,182,0,3,144.65,86.62,19.9882,0.2341
ecg,182,0,4,144.435,86.53,25.464,0.2326
ecg,182,0,5,144.23,86.42,30.9631,0.2332
ecg,182,0,6,144.035,86.29,36.3809,0.236
ecg,182,0,7,143.855,86.14,43.2653,0.2335
ecg,182,0,8,143.69,85.975,46.7373,0.2335
ecg,182,0,9,143.54,85.8,52.124,0.228
ecg,182,0,10,143.405,85.61,56.9767,0.2386
ecg,182,0,11,143.29,85.4,65.5581,0.2417
ecg,182,0,12,143.2,85.18,70.0166,0.2341
ecg,182,0,13,143.13,84.955,75.3785,0.2377
ecg,182,0,14,143.08,84.715,80.9078,0.2532
ecg,182,0,15,143.05,84.465,85.4286,0.2508
ecg,182,0,16,143.05,84.21,94.3961,0.2608
ecg,182,0,17,143.075,83.955,96.8425,0.2518
ecg,182,0,18,143.125,83.715,106.9284,0.2404
ecg,182,0,19,143.2,83.485,109.1809,0.2435
ecg,182,0,20,143.29,83.265,115.4622,0.2326
ecg,182,0,21,143.4,83.06,120.9644,0.2333
ecg,182,0,22,143.53,82.865,126.3839,0.236
ecg,182,0,23,143.68,82.685,133.26,0.2335
ecg,182,0,24,143.845,82.525,138.5797,0.2267
ecg,182,0,25,144.025,82.38,143.6169,0.236
ecg,182,0,26,144.22,82.255,151.1872,0.2283
ecg,182,0,27,144.425,82.15,154.5344,0.2326
ecg,182,0,28,144.64,82.06,160.0201,0.2341
ecg,182,0,29,144.87,81.99,165.9578,0.2474
ecg,182,0,30,145.11,81.945,172.8822,0.2419
ecg,182,0,31,145.35,81.925,177.6118,0.2402
ecg,182,0,32,145.595,81.925,2.2928,0.2502
ecg,182,0,33,145.84,81.945,7.1174,0.2419
ecg,182,0,34,146.075,81.99,14.6277,0.2377
ecg,182,0,35,146.3,82.06,19.9799,0.2341
ecg,182,0,36,146.515,82.15,25.4656,0.2326
ecg,182,0,37,146.72,82.255,28.8128,0.2283
ecg,182,0,38,146.915,82.38,36.3831,0.236
ecg,182,0,39,147.095,82.525,41.4203,0.2267
ecg,182,0,40,147.26,82.685,46.74,0.2335
ecg,182,0,41,147.41,82.865,53.6161,0.236
ecg,182,0,42,147.54,83.06,59.0356,0.2333
ecg,182,0,43,147.65,83.265,64.5378,0.2326
ecg,182,0,44,147.745,83.485,68.6252,0.247
ecg,182,0,45,147.82,83.715,75.3804,0.2377
ecg,182,0,46,147.865,83.955,83.1575,0.2518
ecg,182,0,47,147.89,84.21,85.6039,0.2608
ecg,182,0,48,147.89,84.465,94.5714,0.2508
ecg,182,0,49,147.865,84.715,96.8425,0.2518
ecg,182,0,50,147.82,84.955,104.6215,0.2377
ecg,182,0,51,147.745,85.18,112.2515,0.2377
ecg,182,0,52,147.65,85.4,114.4419,0.2417
ecg,182,0,53,147.54,85.61,120.9644,0.2333
ecg,182,0,54,147.41,85.8,127.876,0.228
ecg,182,0,55,147.26,85.975,133.26,0.2335
ecg,182,0,56,147.09,86.14,138.3671,0.2408
ecg,182,0,57,146.91,86.29,142.127,0.228
ecg,182,0,58,146.72,86.42,149.0388,0.2332
ecg,182,0,59,146.51,86.53,155.5548,0.2417
ecg,182,0,60,146.29,86.62,160.0118,0.2341
ecg,182,0,61,146.065,86.69,165.3804,0.2377
ecg,182,0,62,145.83,86.74,170.5424,0.2433
ecg,182,0,63,145.59,86.765,177.6118,0.2402
ecg,182,1,0,145.38,82.435,176.8169,0.1803
ecg,182,1,1,145.2,82.45,173.6635,0.1811
ecg,182,1,2,145.02,82.485,164.4789,0.1868
ecg,182,1,3,144.85,82.54,159.4452,0.1709
ecg,182,1,4,144.615,82.66,149.8552,0.3585
ecg,182,1,5,144.32,82.865,140.6016,0.3623
ecg,182,1,6,144.07,83.12,128.1575,0.3561
ecg,182,1,7,143.875,83.425,117.2539,0.3712
ecg,182,1,8,143.755,83.675,112.3843,0.1838
ecg,182,1,9,143.7,83.855,101.8866,0.1942
ecg,182,1,10,143.665,84.045,98.9766,0.1924
ecg,182,1,11,143.645,84.24,92.8607,0.2003
ecg,182,1,12,143.645,84.44,87.1389,0.2002
ecg,182,1,13,143.66,84.63,83.6593,0.1811
ecg,182,1,14,143.695,84.815,75.2558,0.1965
ecg,182,1,15,143.745,84.995,73.608,0.1772
ecg,182,1,16,143.855,85.245,62.7461,0.3712
ecg,182,1,17,144.045,85.55,53.1311,0.35
ecg,182,1,18,144.285,85.81,41.6319,0.3612
ecg,182,1,19,144.575,86.02,30.1406,0.3585
ecg,182,1,20,144.815,86.14,19.4395,0.1803
ecg,182,1,21,144.99,86.195,15.5289,0.1868
ecg,182,1,22,145.175,86.235,8.9722,0.1924
ecg,182,1,23,145.37,86.255,2.8565,0.2002
ecg,182,1,24,145.57,86.255,177.1435,0.2002
ecg,182,1,25,145.765,86.235,171.0278,0.1924
ecg,182,1,26,145.95,86.195,164.4711,0.1868
ecg,182,1,27,146.125,86.14,160.5605,0.1803
ecg,182,1,28,146.365,86.02,149.8594,0.3585
ecg,182,1,29,146.655,85.81,138.3681,0.3612
ecg,182,1,30,146.9,85.55,128.1556,0.3561
ecg,182,1,31,147.09,85.245,115.8657,0.3668
ecg,182,1,32,147.195,84.995,106.392,0.1772
ecg,182,1,33,147.245,84.815,104.7442,0.1965
ecg,182,1,34,147.28,84.63,96.3407,0.1811
ecg,182,1,35,147.295,84.44,92.8611,0.2002
ecg,182,1,36,147.295,84.24,87.1393,0.2003
ecg,182,1,37,147.275,84.045,81.0234,0.1924
ecg,182,1,38,147.24,83.855,78.1134,0.1942
ecg,182,1,39,147.185,83.675,67.6157,0.1838
ecg,182,1,40,147.065,83.425,62.7461,0.3712
ecg,182,1,41,146.87,83.12,51.8425,0.3561
ecg,182,1,42,146.625,82.865,40.4248,0.3547
ecg,182,1,43,146.335,82.66,30.1448,0.3585
ecg,182,1,44,146.095,82.54,19.4379,0.1803
ecg,182,1,45,145.92,82.485,15.5211,0.1868
ecg,182,1,46,145.74,82.45,6.3365,0.1811
ecg,182,1,47,145.56,82.435,3.1831,0.1803
ecg,183,0,0,148.975,86.6,0.0,0.59
ecg,183,0,1,148.68,84.3,90.0,4.6
ecg,183,0,2,149.68,82.0,0.0,2.0
ecg,183,0,3,150.68,82.255,90.0,0.51
ecg,183,0,4,149.975,82.51,0.0,1.41
ecg,183,0,5,149.27,84.555,90.0,4.09
ecg,184,0,0,151.73,82.0,0.0,0.96
ecg,184,0,1,152.345,82.005,2.1233,0.2702
ecg,184,0,2,152.61,82.025,6.5814,0.2617
ecg,184,0,3,152.865,82.06,9.0854,0.2532
ecg,184,0,4,153.11,82.11,14.0431,0.2474
ecg,184,0,5,153.345,82.18,19.1752,0.2435
ecg,184,0,6,153.57,82.27,24.4466,0.2417
ecg,184,0,7,153.78,82.38,30.9612,0.2332
ecg,184,0,8,153.97,82.505,35.8398,0.222
ecg,184,0,9,154.145,82.645,41.4228,0.2267
ecg,184,0,10,154.305,82.81,50.1916,0.2343
ecg,184,0,11,154.445,82.995,55.6221,0.2302
ecg,184,0,12,154.565,83.19,61.1905,0.2283
ecg,184,0,13,154.665,83.405,68.6252,0.247
ecg,184,0,14,154.745,83.645,74.3594,0.2596
ecg,184,0,15,154.8,83.905,81.5719,0.273
ecg,184,0,16,154.825,84.18,87.9557,0.2802
ecg,184,0,17,154.825,84.46,92.0443,0.2802
ecg,184,0,18,154.8,84.73,98.7487,0.263
ecg,184,0,19,154.745,84.985,105.6406,0.2596
ecg,184,0,20,154.665,85.22,112.2515,0.2377
ecg,184,0,21,154.565,85.43,118.8095,0.2283
ecg,184,0,22,154.445,85.625,124.3779,0.2302
ecg,184,0,23,154.305,85.805,131.4232,0.2267
ecg,184,0,24,154.145,85.965,138.5772,0.2267
ecg,184,0,25,153.965,86.105,145.619,0.2302
ecg,184,0,26,153.77,86.23,149.0369,0.2332
ecg,184,0,27,153.56,86.335,157.7519,0.2377
ecg,184,0,28,153.34,86.42,160.0201,0.2341
ecg,184,0,29,153.11,86.49,165.9638,0.2474
ecg,184,0,30,152.865,86.54,170.9078,0.2532
ecg,184,0,31,152.615,86.575,173.1575,0.2518
ecg,184,0,32,152.36,86.595,177.7953,0.2602
ecg,184,0,33,151.74,86.6,0.0,0.98
ecg,184,0,34,151.25,84.3,90.0,4.6
ecg,184,1,0,151.95,86.09,0.0,0.2
ecg,184,1,1,152.16,86.085,177.3949,0.2202
ecg,184,1,2,152.375,86.075,177.2792,0.2102
ecg,184,1,3,152.585,86.055,171.8705,0.2121
ecg,184,1,4,152.79,86.02,168.6875,0.204
ecg,184,1,5,152.985,85.97,162.4753,0.1993
ecg,184,1,6,153.17,85.91,161.5651,0.1897
ecg,184,1,7,153.34,85.84,153.4306,0.1789
ecg,184,1,8,153.5,85.75,148.0015,0.1887
ecg,184,1,9,153.65,85.645,141.8386,0.1781
